Date,Open,High,Low,Close,Adj Close,Volume
2020-07-27 04:00:00+00:00,112.47,113.52,111.96,112.99,112.99,24054.0
2020-07-28 04:00:00+00:00,112.79,112.79,111.49,111.61,111.61,6912.0
2020-07-29 04:00:00+00:00,111.83,112.8,111.83,112.29,112.29,20435.0
2020-07-30 04:00:00+00:00,110.99,112.07,110.46,111.52,111.52,21236.0
2020-07-31 04:00:00+00:00,108.71,110.67,105.55,108.97,108.97,29344.0
2020-08-03 04:00:00+00:00,110.85,113.06,110.79,112.18,112.18,9095.0
2020-08-04 04:00:00+00:00,111.86,113.56,111.86,112.27,112.27,7802.0
2020-08-05 04:00:00+00:00,113.43,113.66,111.77,111.91,111.91,8065.0
2020-08-06 04:00:00+00:00,112.63,112.63,110.72,111.22,111.22,14328.0
2020-08-07 04:00:00+00:00,111.39,112.82,111.39,112.73,112.73,8745.0
2020-08-10 04:00:00+00:00,113.04,113.04,110.54,110.64,110.64,5622.0
2020-08-11 04:00:00+00:00,111.33,111.68,110.25,110.25,110.25,7121.0
2020-08-12 04:00:00+00:00,111.61,112.04,111.28,111.72,111.72,9007.0
2020-08-13 04:00:00+00:00,111.55,112.86,111.55,112.13,112.13,7376.0
2020-08-14 04:00:00+00:00,112.37,113.09,111.75,111.92,111.92,4863.0
2020-08-17 04:00:00+00:00,113.05,113.05,111.98,111.98,111.98,3172.0
2020-08-18 04:00:00+00:00,111.08,112.15,110.92,111.39,111.39,2753.0
2020-08-19 04:00:00+00:00,111.95,112.57,111.71,111.72,111.72,3298.0
2020-08-20 04:00:00+00:00,111.33,111.55,110.87,111.14,111.14,10943.0
2020-08-21 04:00:00+00:00,110.86,111.88,110.09,111.31,111.31,8373.0
2020-08-24 04:00:00+00:00,112.36,113.21,112.25,112.54,112.54,11946.0
2020-08-25 04:00:00+00:00,112.14,112.14,111.48,111.69,111.69,4091.0
2020-08-26 04:00:00+00:00,111.4,112.23,111.4,112.14,112.14,3662.0
2020-08-27 04:00:00+00:00,112.75,113.97,112.75,113.49,113.49,9646.0
2020-08-28 04:00:00+00:00,112.85,112.94,111.71,111.76,111.76,17266.0
2020-08-31 04:00:00+00:00,111.74,112.54,111.41,111.87,111.87,3976.0
2020-09-01 04:00:00+00:00,111.84,112.96,111.79,112.94,112.94,4598.0
2020-09-02 04:00:00+00:00,112.46,115.68,112.46,115.68,115.68,3197.0
2020-09-03 04:00:00+00:00,114.4,114.4,112.15,112.42,112.42,26686.0
2020-09-04 04:00:00+00:00,112.15,112.3,110.25,112.3,112.3,7413.0
2020-09-08 04:00:00+00:00,111.33,111.33,109.78,109.79,109.79,8768.0
2020-09-09 04:00:00+00:00,111.26,112.13,110.7,111.35,111.35,4424.0
2020-09-10 04:00:00+00:00,111.67,112.13,110.54,111.04,111.04,7321.0
2020-09-11 04:00:00+00:00,111.32,111.98,110.93,111.79,111.79,4157.0
2020-09-14 04:00:00+00:00,112.41,113.26,112.02,112.65,112.65,6500.0
2020-09-15 04:00:00+00:00,112.82,112.98,111.79,111.79,111.79,10338.0
2020-09-16 04:00:00+00:00,112.36,112.36,111.14,111.43,111.43,14068.0
2020-09-17 04:00:00+00:00,109.31,109.8,108.93,109.64,109.64,17731.0
2020-09-18 04:00:00+00:00,109.16,110.35,108.07,108.6,108.6,11495.0
2020-09-21 04:00:00+00:00,107.8,107.8,105.84,107.16,107.16,5902.0
2020-09-22 04:00:00+00:00,108.4,108.4,107.41,108.09,108.09,5763.0
2020-09-23 04:00:00+00:00,107.78,108.16,105.69,106.09,106.09,8241.0
2020-09-24 04:00:00+00:00,105.77,106.87,105.68,106.06,106.06,13339.0
2020-09-25 04:00:00+00:00,106.05,106.14,105.41,106.03,106.03,9709.0
2020-09-28 04:00:00+00:00,107.27,107.56,105.91,106.28,106.28,18047.0
2020-09-29 04:00:00+00:00,106.4,106.99,106.0,106.52,106.52,6951.0
2020-09-30 04:00:00+00:00,106.93,107.7,106.35,107.03,107.03,18257.0
2020-10-01 04:00:00+00:00,107.95,108.6,106.95,107.44,107.44,9472.0
2020-10-02 04:00:00+00:00,106.72,107.69,106.66,106.72,106.72,17294.0
2020-10-05 04:00:00+00:00,108.21,108.64,107.73,108.26,108.26,8369.0
2020-10-06 04:00:00+00:00,108.01,109.1,107.76,108.36,108.36,6665.0
2020-10-07 04:00:00+00:00,109.09,109.82,108.44,108.72,108.72,7223.0
2020-10-08 04:00:00+00:00,109.2,110.37,109.2,110.13,110.13,7458.0
2020-10-09 04:00:00+00:00,111.37,111.65,109.84,110.39,110.39,7872.0
2020-10-12 04:00:00+00:00,110.32,112.33,110.32,111.54,111.54,18194.0
2020-10-13 04:00:00+00:00,111.01,112.41,110.84,111.17,111.17,14643.0
2020-10-14 04:00:00+00:00,111.09,111.57,109.86,110.19,110.19,6085.0
2020-10-15 04:00:00+00:00,108.43,110.06,108.29,110.0,110.0,10901.0
2020-10-16 04:00:00+00:00,110.44,110.68,109.91,110.03,110.03,4704.0
2020-10-19 04:00:00+00:00,109.76,109.82,108.43,108.95,108.95,7524.0
2020-10-20 04:00:00+00:00,110.11,111.08,109.94,110.66,110.66,16916.0
2020-10-21 04:00:00+00:00,111.72,112.14,110.98,111.4,111.4,15854.0
2020-10-22 04:00:00+00:00,110.36,111.94,110.36,111.63,111.63,9452.0
2020-10-23 04:00:00+00:00,112.16,112.23,111.27,111.82,111.82,10084.0
2020-10-26 04:00:00+00:00,110.8,111.01,109.83,111.01,111.01,8076.0
2020-10-27 04:00:00+00:00,110.56,110.86,109.65,109.79,109.79,11225.0
2020-10-28 04:00:00+00:00,108.03,108.08,106.6,106.61,106.61,11222.0
2020-10-29 04:00:00+00:00,105.97,107.16,104.77,107.05,107.05,19299.0
2020-10-30 04:00:00+00:00,109.07,110.72,107.74,108.23,108.23,36388.0
2020-11-02 05:00:00+00:00,109.06,112.13,109.06,112.04,112.04,21613.0
2020-11-03 05:00:00+00:00,113.51,115.17,112.96,113.45,113.45,24405.0
2020-11-04 05:00:00+00:00,113.74,113.74,112.09,112.9,112.9,18728.0
2020-11-05 05:00:00+00:00,115.15,116.66,114.95,116.44,116.44,20926.0
2020-11-06 05:00:00+00:00,117.96,117.96,116.39,117.16,117.16,18430.0
2020-11-09 05:00:00+00:00,121.65,121.65,115.93,116.66,116.66,37284.0
2020-11-10 05:00:00+00:00,117.1,122.03,117.1,120.99,120.99,34918.0
2020-11-11 05:00:00+00:00,120.62,120.62,118.1,118.78,118.78,18556.0
2020-11-12 05:00:00+00:00,117.96,118.19,116.25,117.74,117.74,6777.0
2020-11-13 05:00:00+00:00,119.05,119.05,118.09,118.51,118.51,9099.0
2020-11-16 05:00:00+00:00,120.0,120.21,119.26,120.21,120.21,13994.0
2020-11-17 05:00:00+00:00,120.48,121.39,120.34,120.74,120.74,13848.0
2020-11-18 05:00:00+00:00,120.46,120.94,119.49,119.92,119.92,18014.0
2020-11-19 05:00:00+00:00,120.31,120.89,119.74,120.49,120.49,11897.0
2020-11-20 05:00:00+00:00,120.9,121.54,120.73,121.18,121.18,11544.0
2020-11-23 05:00:00+00:00,122.12,122.12,119.89,120.38,120.38,12572.0
2020-11-24 05:00:00+00:00,121.38,121.82,120.37,121.0,121.0,18300.0
2020-11-25 05:00:00+00:00,121.02,121.02,119.46,119.78,119.78,7054.0
2020-11-27 05:00:00+00:00,119.74,120.5,119.74,120.5,120.5,2098.0
2020-11-30 05:00:00+00:00,119.7,120.3,119.18,119.86,119.86,14864.0
2020-12-01 05:00:00+00:00,121.45,121.67,120.2,121.2,121.2,9347.0
2020-12-02 05:00:00+00:00,120.75,120.75,119.21,119.47,119.47,7290.0
2020-12-03 05:00:00+00:00,119.88,120.15,118.83,119.27,119.27,5726.0
2020-12-04 05:00:00+00:00,120.13,121.14,119.84,120.95,120.95,10982.0
2020-12-07 05:00:00+00:00,121.93,122.25,121.03,121.93,121.93,10024.0
2020-12-08 05:00:00+00:00,121.96,123.89,121.96,122.52,122.52,6028.0
2020-12-09 05:00:00+00:00,122.83,123.37,122.21,122.95,122.95,7340.0
2020-12-10 05:00:00+00:00,122.61,124.23,122.61,123.66,123.66,11457.0
2020-12-11 05:00:00+00:00,123.51,123.89,123.06,123.62,123.62,6201.0
2020-12-14 05:00:00+00:00,124.95,125.03,121.65,121.88,121.88,9232.0
2020-12-15 05:00:00+00:00,122.47,123.75,122.47,123.36,123.36,7212.0
2020-12-16 05:00:00+00:00,124.16,124.55,123.6,124.21,124.21,7815.0
2020-12-17 05:00:00+00:00,124.99,126.72,124.99,126.32,126.32,12031.0
2020-12-18 05:00:00+00:00,127.17,127.68,126.83,127.18,127.18,22766.0
2020-12-21 05:00:00+00:00,126.13,127.83,124.87,127.83,127.83,6055.0
2020-12-22 05:00:00+00:00,127.07,129.17,127.07,127.78,127.78,13885.0
2020-12-23 05:00:00+00:00,127.64,128.55,127.64,127.7,127.7,38749.0
2020-12-24 05:00:00+00:00,127.71,129.17,127.71,128.69,128.69,4131.0
2020-12-28 05:00:00+00:00,128.99,130.0,128.07,128.83,128.83,4735.0
2020-12-29 05:00:00+00:00,128.65,128.72,127.95,128.46,128.46,6187.0
2020-12-30 05:00:00+00:00,129.58,130.13,128.92,129.3,129.3,6412.0
2020-12-31 05:00:00+00:00,129.29,130.19,128.63,129.86,129.86,17137.0
2021-01-04 05:00:00+00:00,129.48,130.64,126.78,127.06,127.06,54693.0
2021-01-05 05:00:00+00:00,127.44,127.83,126.69,126.7,126.7,12189.0
2021-01-06 05:00:00+00:00,127.71,130.69,127.71,130.58,130.58,12045.0
2021-01-07 05:00:00+00:00,130.41,132.7,130.32,132.6,132.6,8619.0
2021-01-08 05:00:00+00:00,132.74,133.19,130.63,131.7,131.7,6754.0
2021-01-11 05:00:00+00:00,131.22,132.39,131.22,131.77,131.77,4938.0
2021-01-12 05:00:00+00:00,131.63,131.75,130.09,131.26,131.26,8571.0
2021-01-13 05:00:00+00:00,129.8,132.23,129.09,131.38,131.38,11296.0
2021-01-14 05:00:00+00:00,130.59,133.42,130.55,132.18,132.18,11170.0
2021-01-15 05:00:00+00:00,131.78,133.84,131.58,131.58,131.58,10918.0
2021-01-19 05:00:00+00:00,132.02,132.02,130.18,130.2,130.2,10494.0
2021-01-20 05:00:00+00:00,131.4,133.43,130.79,133.43,133.43,18157.0
2021-01-21 05:00:00+00:00,133.03,133.32,130.96,130.98,130.98,8897.0
2021-01-22 05:00:00+00:00,130.96,131.13,130.2,131.06,131.06,25427.0
2021-01-25 05:00:00+00:00,131.04,132.55,131.01,132.41,132.41,7215.0
2021-01-26 05:00:00+00:00,132.56,133.08,131.12,132.02,132.02,6416.0
2021-01-27 05:00:00+00:00,130.22,130.22,126.59,126.68,126.68,12188.0
2021-01-28 05:00:00+00:00,127.4,129.07,127.4,128.61,128.61,8921.0
2021-01-29 05:00:00+00:00,128.69,128.69,125.47,126.44,126.44,33731.0
2021-02-01 05:00:00+00:00,127.36,127.71,125.31,127.31,127.31,41160.0
2021-02-02 05:00:00+00:00,128.63,131.3,128.63,130.02,130.02,9478.0
2021-02-03 05:00:00+00:00,130.08,130.3,128.77,129.81,129.81,7619.0
2021-02-04 05:00:00+00:00,128.76,131.4,128.35,131.19,131.19,15221.0
2021-02-05 05:00:00+00:00,132.66,133.77,131.98,133.71,133.71,13725.0
2021-02-08 05:00:00+00:00,134.23,134.91,133.75,134.88,134.88,13878.0
2021-02-09 05:00:00+00:00,135.17,135.68,134.34,135.11,135.11,14066.0
2021-02-10 05:00:00+00:00,136.82,136.94,135.62,136.05,136.05,5026.0
2021-02-11 05:00:00+00:00,137.21,137.21,135.1,136.05,136.05,5106.0
2021-02-12 05:00:00+00:00,136.25,137.44,136.18,137.44,137.44,5619.0
2021-02-16 05:00:00+00:00,136.99,137.04,135.94,136.36,136.36,5153.0
2021-02-17 05:00:00+00:00,135.56,137.07,135.56,136.15,136.15,11829.0
2021-02-18 05:00:00+00:00,135.74,136.12,134.39,134.39,134.39,11935.0
2021-02-19 05:00:00+00:00,128.92,130.28,125.23,125.82,125.82,44152.0
2021-02-22 05:00:00+00:00,124.89,124.89,121.27,122.71,122.71,18852.0
2021-02-23 05:00:00+00:00,121.7,122.29,120.54,122.02,122.02,30212.0
2021-02-24 05:00:00+00:00,121.79,122.65,121.58,122.42,122.42,15589.0
2021-02-25 05:00:00+00:00,123.09,124.19,122.8,124.01,124.01,28211.0
2021-02-26 05:00:00+00:00,123.62,125.08,123.17,123.81,123.81,26115.0
2021-03-01 05:00:00+00:00,125.14,125.45,123.47,124.14,124.14,21143.0
2021-03-02 05:00:00+00:00,123.68,124.04,123.19,123.83,123.83,18714.0
2021-03-03 05:00:00+00:00,123.53,125.66,123.53,124.8,124.8,11524.0
2021-03-04 05:00:00+00:00,125.06,125.21,123.76,123.91,123.91,33482.0
2021-03-05 05:00:00+00:00,124.28,127.47,124.18,127.45,127.45,10296.0
2021-03-08 05:00:00+00:00,129.34,131.37,129.34,131.03,131.03,8110.0
2021-03-09 05:00:00+00:00,131.27,133.59,130.94,130.99,130.99,13083.0
2021-03-10 05:00:00+00:00,131.14,133.13,131.14,132.42,132.42,8279.0
2021-03-11 05:00:00+00:00,132.47,133.35,131.9,132.48,132.48,12162.0
2021-03-12 05:00:00+00:00,133.07,134.05,133.07,134.04,134.04,8592.0
2021-03-15 04:00:00+00:00,134.13,135.85,134.13,135.16,135.16,20738.0
2021-03-16 04:00:00+00:00,134.85,135.03,132.61,133.73,133.73,17896.0
2021-03-17 04:00:00+00:00,133.55,134.7,132.77,134.28,134.28,12014.0
2021-03-18 04:00:00+00:00,134.12,135.4,134.12,134.79,134.79,8900.0
2021-03-19 04:00:00+00:00,134.71,134.71,132.29,132.39,132.39,14119.0
2021-03-22 04:00:00+00:00,132.28,134.86,132.28,134.64,134.64,17888.0
2021-03-23 04:00:00+00:00,133.71,135.49,133.5,134.06,134.06,20605.0
2021-03-24 04:00:00+00:00,134.34,137.09,134.34,134.89,134.89,15912.0
2021-03-25 04:00:00+00:00,134.43,136.16,134.13,135.48,135.48,16162.0
2021-03-26 04:00:00+00:00,135.94,137.67,135.39,137.67,137.67,11530.0
2021-03-29 04:00:00+00:00,137.65,137.99,136.45,137.74,137.74,11563.0
2021-03-30 04:00:00+00:00,137.09,137.29,135.68,135.97,135.97,22049.0
2021-03-31 04:00:00+00:00,135.18,136.33,134.39,134.83,134.83,20442.0
2021-04-01 04:00:00+00:00,135.13,136.72,134.41,136.62,136.62,15396.0
2021-04-05 04:00:00+00:00,137.61,137.65,136.58,137.43,137.43,15149.0
2021-04-06 04:00:00+00:00,136.98,138.72,136.27,138.71,138.71,15971.0
2021-04-07 04:00:00+00:00,137.84,138.21,136.38,136.53,136.53,17046.0
2021-04-08 04:00:00+00:00,136.4,136.84,135.27,136.67,136.67,9159.0
2021-04-09 04:00:00+00:00,137.14,138.06,136.7,137.97,137.97,9407.0
2021-04-12 04:00:00+00:00,137.85,139.1,137.85,139.07,139.07,7077.0
2021-04-13 04:00:00+00:00,139.16,139.56,138.3,139.32,139.32,18093.0
2021-04-14 04:00:00+00:00,138.41,138.86,137.7,138.74,138.74,12483.0
2021-04-15 04:00:00+00:00,139.25,140.32,139.25,139.87,139.87,15193.0
2021-04-16 04:00:00+00:00,141.56,141.56,140.47,140.75,140.75,37394.0
2021-04-20 04:00:00+00:00,139.44,143.32,139.44,143.05,143.05,7141.0
2021-04-21 04:00:00+00:00,143.05,144.81,143.03,144.51,144.51,8968.0
2021-04-22 04:00:00+00:00,143.6,144.08,142.63,142.63,142.63,15392.0
2021-04-23 04:00:00+00:00,142.71,144.24,142.6,143.92,143.92,6037.0
2021-04-26 04:00:00+00:00,144.25,144.3,143.56,143.58,143.58,11560.0
2021-04-27 04:00:00+00:00,142.97,144.55,142.58,144.53,144.53,15860.0
2021-04-28 04:00:00+00:00,144.54,145.7,144.0,144.01,144.01,21121.0
2021-04-29 04:00:00+00:00,144.81,144.91,143.4,143.92,143.92,31394.0
2021-04-30 04:00:00+00:00,144.67,144.67,141.06,143.66,143.66,33608.0
2021-05-03 04:00:00+00:00,145.01,145.89,144.88,145.3,145.3,9371.0
2021-05-04 04:00:00+00:00,146.56,148.67,146.56,147.65,147.65,13567.0
2021-05-05 04:00:00+00:00,147.78,147.98,146.27,146.94,146.94,13892.0
2021-05-06 04:00:00+00:00,147.41,149.23,146.55,149.07,149.07,38759.0
2021-05-07 04:00:00+00:00,148.54,150.43,148.41,150.17,150.17,46809.0
2021-05-10 04:00:00+00:00,151.06,151.07,148.18,148.18,148.18,12337.0
2021-05-11 04:00:00+00:00,147.98,147.98,146.61,146.89,146.89,13932.0
2021-05-12 04:00:00+00:00,145.67,145.73,144.59,144.7,144.7,12392.0
2021-05-13 04:00:00+00:00,144.69,147.94,144.69,147.43,147.43,19144.0
2021-05-14 04:00:00+00:00,147.29,147.29,146.04,146.24,146.24,5971.0
2021-05-17 04:00:00+00:00,145.51,146.81,145.51,145.9,145.9,4512.0
2021-05-18 04:00:00+00:00,145.06,145.55,143.86,143.94,143.94,7568.0
2021-05-19 04:00:00+00:00,143.48,143.48,141.69,142.38,142.38,6686.0
2021-05-20 04:00:00+00:00,142.89,143.39,142.52,142.59,142.59,2925.0
2021-05-21 04:00:00+00:00,143.52,143.52,141.96,142.49,142.49,4104.0
2021-05-24 04:00:00+00:00,142.6,142.76,142.01,142.2,142.2,9456.0
2021-05-25 04:00:00+00:00,142.31,142.31,140.71,140.84,140.84,5720.0
2021-05-26 04:00:00+00:00,141.97,141.97,140.44,140.77,140.77,4197.0
2021-05-27 04:00:00+00:00,141.5,141.5,139.82,139.94,139.94,7714.0
2021-05-28 04:00:00+00:00,140.32,140.5,139.86,140.48,140.48,5145.0
2021-06-01 04:00:00+00:00,140.64,140.67,139.77,139.78,139.78,5547.0
2021-06-02 04:00:00+00:00,140.79,140.8,138.37,138.83,138.83,9729.0
2021-06-03 04:00:00+00:00,139.12,139.12,137.99,138.66,138.66,18127.0
2021-06-04 04:00:00+00:00,138.74,139.19,138.07,138.8,138.8,8537.0
2021-06-07 04:00:00+00:00,138.01,138.01,135.41,135.78,135.78,9038.0
2021-06-08 04:00:00+00:00,135.39,136.01,134.58,135.93,135.93,4008.0
2021-06-09 04:00:00+00:00,136.09,136.49,135.23,135.48,135.48,3956.0
2021-06-10 04:00:00+00:00,136.15,138.23,135.61,138.18,138.18,9835.0
2021-06-11 04:00:00+00:00,138.66,138.93,137.57,138.92,138.92,7474.0
2021-06-14 04:00:00+00:00,138.89,139.04,136.53,136.83,136.83,6779.0
2021-06-15 04:00:00+00:00,137.73,138.02,136.64,137.55,137.55,15626.0
2021-06-16 04:00:00+00:00,137.65,138.26,135.8,135.8,135.8,9893.0
2021-06-17 04:00:00+00:00,135.91,135.91,133.63,134.88,134.88,9847.0
2021-06-18 04:00:00+00:00,134.84,135.12,133.37,133.37,133.37,11241.0
2021-06-21 04:00:00+00:00,134.07,135.49,133.59,134.88,134.88,12857.0
2021-06-22 04:00:00+00:00,135.2,135.64,134.89,134.99,134.99,11426.0
2021-06-23 04:00:00+00:00,134.92,135.05,133.53,133.53,133.53,15854.0
2021-06-24 04:00:00+00:00,134.13,134.13,133.28,133.48,133.48,12432.0
2021-06-25 04:00:00+00:00,133.62,134.82,133.6,134.23,134.23,23084.0
2021-06-28 04:00:00+00:00,134.77,134.77,133.41,134.14,134.14,14605.0
2021-06-29 04:00:00+00:00,134.76,134.76,133.57,133.79,133.79,10610.0
2021-06-30 04:00:00+00:00,134.42,134.69,133.88,134.26,134.26,11536.0
2021-07-01 04:00:00+00:00,134.54,134.98,134.29,134.57,134.57,11075.0
2021-07-02 04:00:00+00:00,134.35,134.35,133.64,133.83,133.83,5984.0
2021-07-06 04:00:00+00:00,133.99,134.25,132.35,133.42,133.42,15357.0
2021-07-07 04:00:00+00:00,134.24,134.75,133.86,134.39,134.39,17024.0
2021-07-08 04:00:00+00:00,134.0,134.0,132.61,132.72,132.72,7900.0
2021-07-09 04:00:00+00:00,134.12,134.6,133.23,134.55,134.55,10516.0
2021-07-12 04:00:00+00:00,133.98,134.16,133.64,133.88,133.88,9119.0
2021-07-13 04:00:00+00:00,134.11,134.26,131.88,131.92,131.92,14463.0
2021-07-14 04:00:00+00:00,132.06,132.57,131.68,132.13,132.13,7409.0
2021-07-15 04:00:00+00:00,131.14,132.12,131.1,132.1,132.1,8839.0
2021-07-16 04:00:00+00:00,132.54,133.73,132.54,132.79,132.79,15816.0
2021-07-19 04:00:00+00:00,132.1,132.1,130.05,130.7,130.7,16414.0
2021-07-20 04:00:00+00:00,131.32,133.06,130.58,130.6,130.6,16372.0
2021-07-21 04:00:00+00:00,131.01,131.17,129.63,129.69,129.69,6064.0
2021-07-22 04:00:00+00:00,130.23,130.23,128.38,128.38,128.38,12444.0
2021-07-23 04:00:00+00:00,128.34,129.85,127.99,129.85,129.85,11080.0
2021-07-26 04:00:00+00:00,129.84,130.69,129.61,130.25,130.25,8383.0
2021-07-27 04:00:00+00:00,129.67,131.73,129.67,130.33,130.33,10102.0
2021-07-28 04:00:00+00:00,130.19,131.35,129.83,131.16,131.16,7942.0
2021-07-29 04:00:00+00:00,132.53,133.43,132.52,132.91,132.91,31746.0
2021-07-30 04:00:00+00:00,126.6,129.65,122.2,122.79,122.79,27186.0
2021-08-02 04:00:00+00:00,122.32,124.27,122.32,123.76,123.76,38924.0
2021-08-03 04:00:00+00:00,123.62,123.64,122.25,122.94,122.94,22210.0
2021-08-04 04:00:00+00:00,123.08,123.5,120.82,121.3,121.3,12754.0
2021-08-05 04:00:00+00:00,122.15,122.46,121.1,121.8,121.8,10404.0
2021-08-06 04:00:00+00:00,122.82,123.72,122.32,122.65,122.65,11795.0
2021-08-09 04:00:00+00:00,123.21,124.92,123.19,124.34,124.34,22011.0
2021-08-10 04:00:00+00:00,124.28,125.23,123.29,123.46,123.46,14570.0
2021-08-11 04:00:00+00:00,124.23,126.49,123.98,125.82,125.82,23096.0
2021-08-12 04:00:00+00:00,127.05,127.58,126.32,126.77,126.77,16653.0
2021-08-13 04:00:00+00:00,126.67,127.98,126.67,127.26,127.26,10663.0
2021-08-16 04:00:00+00:00,127.05,127.3,126.65,126.82,126.82,3721.0
2021-08-17 04:00:00+00:00,126.11,127.17,125.84,127.16,127.16,7141.0
2021-08-18 04:00:00+00:00,126.76,127.0,126.36,126.36,126.36,7554.0
2021-08-19 04:00:00+00:00,126.5,127.07,126.45,126.51,126.51,4152.0
2021-08-20 04:00:00+00:00,127.21,127.95,127.05,127.63,127.63,4504.0
2021-08-23 04:00:00+00:00,128.46,128.46,126.88,127.12,127.12,6645.0
2021-08-24 04:00:00+00:00,126.97,127.6,126.94,126.94,126.94,4938.0
2021-08-25 04:00:00+00:00,127.3,128.45,127.3,128.22,128.22,3590.0
2021-08-26 04:00:00+00:00,127.62,127.84,126.68,126.74,126.74,4895.0
2021-08-27 04:00:00+00:00,127.62,128.98,127.62,128.63,128.63,9813.0
2021-08-30 04:00:00+00:00,129.46,130.21,129.07,129.16,129.16,4098.0
2021-08-31 04:00:00+00:00,129.71,129.81,128.3,128.88,128.88,8486.0
2021-09-01 04:00:00+00:00,129.38,129.45,128.54,128.93,128.93,7354.0
2021-09-02 04:00:00+00:00,129.27,129.41,128.38,129.21,129.21,8759.0
2021-09-03 04:00:00+00:00,129.23,129.58,129.07,129.07,129.07,5288.0
2021-09-07 04:00:00+00:00,127.07,127.07,125.21,125.21,125.21,9866.0
2021-09-08 04:00:00+00:00,125.15,125.53,124.76,125.15,125.15,31320.0
2021-09-09 04:00:00+00:00,125.29,125.29,122.83,122.88,122.88,24302.0
2021-09-10 04:00:00+00:00,123.08,123.08,120.39,120.42,120.42,22762.0
2021-09-13 04:00:00+00:00,120.55,120.55,118.36,119.3,119.3,16116.0
2021-09-14 04:00:00+00:00,119.83,120.47,118.75,119.11,119.11,12842.0
2021-09-15 04:00:00+00:00,118.66,119.61,117.86,119.02,119.02,18902.0
2021-09-16 04:00:00+00:00,118.94,118.94,116.66,116.92,116.92,13600.0
2021-09-17 04:00:00+00:00,116.27,116.27,115.47,115.86,115.86,13750.0
2021-09-20 04:00:00+00:00,114.88,116.5,114.55,116.5,116.5,17166.0
2021-09-21 04:00:00+00:00,116.93,116.93,114.6,114.96,114.96,22628.0
2021-09-22 04:00:00+00:00,115.02,115.85,114.17,114.99,114.99,19460.0
2021-09-23 04:00:00+00:00,116.11,116.21,115.6,115.66,115.66,8257.0
2021-09-24 04:00:00+00:00,115.44,115.99,115.03,115.06,115.06,10066.0
2021-09-27 04:00:00+00:00,115.23,115.68,114.63,115.02,115.02,10604.0
2021-09-28 04:00:00+00:00,114.54,115.51,114.1,114.68,114.68,10562.0
2021-09-29 04:00:00+00:00,115.39,115.9,115.07,115.15,115.15,16721.0
2021-09-30 04:00:00+00:00,115.76,116.08,114.08,114.08,114.08,21962.0
2021-10-01 04:00:00+00:00,113.98,116.73,113.59,116.24,116.24,9267.0
2021-10-04 04:00:00+00:00,116.73,117.24,115.96,116.95,116.95,7814.0
2021-10-05 04:00:00+00:00,116.31,117.44,115.73,116.3,116.3,11347.0
2021-10-06 04:00:00+00:00,116.44,117.74,115.49,117.67,117.67,12296.0
2021-10-07 04:00:00+00:00,118.56,120.36,118.56,118.82,118.82,14335.0
2021-10-08 04:00:00+00:00,118.98,119.38,118.72,119.3,119.3,9906.0
2021-10-11 04:00:00+00:00,119.26,120.63,119.12,119.12,119.12,17878.0
2021-10-12 04:00:00+00:00,118.48,119.32,118.48,118.9,118.9,2977.0
2021-10-13 04:00:00+00:00,119.81,121.94,119.39,121.88,121.88,12886.0
2021-10-14 04:00:00+00:00,121.71,122.61,121.71,122.38,122.38,9901.0
2021-10-15 04:00:00+00:00,122.37,123.52,122.37,122.59,122.59,10990.0
2021-10-18 04:00:00+00:00,121.57,123.01,121.46,122.19,122.19,8440.0
2021-10-19 04:00:00+00:00,122.36,122.6,121.57,121.92,121.92,11842.0
2021-10-20 04:00:00+00:00,121.75,122.84,121.55,122.59,122.59,8543.0
2021-10-21 04:00:00+00:00,122.23,123.75,122.15,123.38,123.38,6059.0
2021-10-22 04:00:00+00:00,122.68,123.84,122.13,122.29,122.29,4489.0
2021-10-26 04:00:00+00:00,121.63,122.92,121.51,121.76,121.76,10894.0
2021-10-27 04:00:00+00:00,121.49,121.68,120.19,120.19,120.19,14392.0
2021-10-28 04:00:00+00:00,119.97,121.05,119.97,120.96,120.96,8556.0
2021-10-29 04:00:00+00:00,118.14,119.85,115.13,115.84,115.84,28326.0
2021-11-01 04:00:00+00:00,115.61,120.4,115.54,120.04,120.04,38379.0
2021-11-02 04:00:00+00:00,120.4,122.72,119.78,122.12,122.12,9233.0
2021-11-03 04:00:00+00:00,121.83,123.15,121.02,123.11,123.11,14500.0
2021-11-04 04:00:00+00:00,123.08,124.43,123.08,123.25,123.25,7168.0
2021-11-05 04:00:00+00:00,123.87,126.2,123.87,126.08,126.08,15004.0
2021-11-08 05:00:00+00:00,126.51,126.63,123.85,125.23,125.23,14524.0
2021-11-09 05:00:00+00:00,125.97,126.0,124.86,124.97,124.97,4605.0
2021-11-10 05:00:00+00:00,125.1,125.1,123.85,124.36,124.36,4934.0
2021-11-11 05:00:00+00:00,124.67,125.0,123.88,124.46,124.46,5388.0
2021-11-12 05:00:00+00:00,124.83,126.12,124.51,126.11,126.11,4886.0
2021-11-15 05:00:00+00:00,126.96,127.51,125.96,126.83,126.83,12538.0
2021-11-16 05:00:00+00:00,127.05,130.2,126.57,128.72,128.72,15265.0
2021-11-17 05:00:00+00:00,129.19,129.37,127.16,129.07,129.07,24039.0
2021-11-18 05:00:00+00:00,128.01,128.01,124.26,124.32,124.32,12512.0
2021-11-19 05:00:00+00:00,124.54,126.04,124.54,124.79,124.79,10664.0
2021-11-22 05:00:00+00:00,125.52,125.87,123.5,123.5,123.5,13276.0
2021-11-23 05:00:00+00:00,123.58,125.14,123.58,124.39,124.39,9173.0
2021-11-24 05:00:00+00:00,124.42,124.42,122.51,122.94,122.94,17214.0
2021-11-26 05:00:00+00:00,122.36,123.52,121.26,121.26,121.26,11171.0
2021-11-29 05:00:00+00:00,122.91,122.91,120.44,120.76,120.76,10760.0
2021-11-30 05:00:00+00:00,119.2,119.2,114.4,114.66,114.66,33932.0
2021-12-01 05:00:00+00:00,115.56,117.33,111.87,112.02,112.02,53325.0
2021-12-02 05:00:00+00:00,112.74,115.71,112.74,114.7,114.7,33527.0
2021-12-03 05:00:00+00:00,114.85,115.55,112.79,113.92,113.92,26968.0
2021-12-06 05:00:00+00:00,114.84,115.98,114.0,115.21,115.21,35606.0
2021-12-07 05:00:00+00:00,115.91,116.65,114.85,115.34,115.34,25335.0
2021-12-08 05:00:00+00:00,115.73,116.14,114.77,115.81,115.81,11931.0
2021-12-09 05:00:00+00:00,115.75,115.97,114.44,114.63,114.63,7056.0
2021-12-10 05:00:00+00:00,115.38,115.49,114.68,114.81,114.81,4605.0
2021-12-13 05:00:00+00:00,114.52,114.85,113.52,113.67,113.67,9230.0
2021-12-14 05:00:00+00:00,113.57,114.28,112.06,112.14,112.14,12209.0
2021-12-15 05:00:00+00:00,112.71,114.08,112.59,113.45,113.45,16709.0
2021-12-16 05:00:00+00:00,114.16,115.03,113.38,113.73,113.73,12344.0
2021-12-17 05:00:00+00:00,112.96,113.06,110.91,111.11,111.11,29341.0
2021-12-20 05:00:00+00:00,109.59,110.06,107.81,108.99,108.99,25165.0
2021-12-21 05:00:00+00:00,109.74,111.06,109.02,110.68,110.68,23583.0
2021-12-22 05:00:00+00:00,110.91,111.18,109.85,110.57,110.57,25816.0
2021-12-23 05:00:00+00:00,110.74,111.71,110.44,111.52,111.52,10368.0
2021-12-27 05:00:00+00:00,112.07,115.02,112.07,114.98,114.98,50329.0
2021-12-28 05:00:00+00:00,115.54,117.01,115.47,116.47,116.47,29974.0
2021-12-29 05:00:00+00:00,116.92,118.38,116.92,117.07,117.07,21034.0
2021-12-30 05:00:00+00:00,117.78,118.25,116.69,116.69,116.69,14302.0
2021-12-31 05:00:00+00:00,116.83,117.79,116.43,117.54,117.54,10554.0
2022-01-03 05:00:00+00:00,117.38,117.4,114.71,115.92,115.92,14738.0
2022-01-04 05:00:00+00:00,115.38,117.72,115.38,116.32,116.32,9698.0
2022-01-05 05:00:00+00:00,116.62,119.0,116.62,117.92,117.92,21754.0
2022-01-06 05:00:00+00:00,118.38,118.65,116.99,117.51,117.51,9415.0
2022-01-07 05:00:00+00:00,117.47,118.62,117.07,118.54,118.54,16367.0
2022-01-10 05:00:00+00:00,117.17,118.78,116.75,117.0,117.0,17259.0
2022-01-11 05:00:00+00:00,116.27,117.3,116.13,117.2,117.2,7402.0
2022-01-12 05:00:00+00:00,116.6,116.69,115.73,116.3,116.3,14269.0
2022-01-13 05:00:00+00:00,116.22,117.22,116.06,116.71,116.71,11532.0
2022-01-14 05:00:00+00:00,115.99,116.44,115.0,116.12,116.12,7857.0
2022-01-18 05:00:00+00:00,115.31,116.26,114.12,115.43,115.43,10604.0
2022-01-19 05:00:00+00:00,116.05,116.84,115.64,116.43,116.43,12853.0
2022-01-20 05:00:00+00:00,115.83,117.12,113.91,113.91,113.91,16549.0
2022-01-21 05:00:00+00:00,113.64,115.12,111.12,111.66,111.66,23940.0
2022-01-24 05:00:00+00:00,111.18,111.18,110.36,110.58,110.58,1619.0
2022-01-25 05:00:00+00:00,109.87,111.96,108.59,111.28,111.28,29650.0
2022-01-26 05:00:00+00:00,110.78,112.69,109.83,110.44,110.44,38184.0
2022-01-27 05:00:00+00:00,111.02,112.71,108.05,108.96,108.96,16922.0
2022-01-28 05:00:00+00:00,107.96,110.25,107.96,110.21,110.21,19797.0
2022-01-31 05:00:00+00:00,110.6,112.46,110.25,112.42,112.42,22358.0
2022-02-01 05:00:00+00:00,113.01,114.03,111.71,112.71,112.71,12166.0
2022-02-02 05:00:00+00:00,112.12,112.5,111.77,112.18,112.18,10241.0
2022-02-03 05:00:00+00:00,111.55,112.91,110.58,110.76,110.76,6426.0
2022-02-04 05:00:00+00:00,110.85,111.54,109.4,110.82,110.82,10228.0
2022-02-07 05:00:00+00:00,110.8,111.58,110.04,110.43,110.43,18084.0
2022-02-08 05:00:00+00:00,110.62,112.0,110.62,111.6,111.6,21791.0
2022-02-09 05:00:00+00:00,113.08,113.08,111.81,112.1,112.1,13637.0
2022-02-10 05:00:00+00:00,111.81,112.72,109.47,110.28,110.28,8441.0
2022-02-11 05:00:00+00:00,111.55,111.99,108.94,109.4,109.4,14030.0
2022-02-14 05:00:00+00:00,110.11,110.11,108.24,109.8,109.8,10994.0
2022-02-15 05:00:00+00:00,110.42,110.67,109.13,109.51,109.51,18389.0
2022-02-16 05:00:00+00:00,109.7,110.68,108.9,110.27,110.27,29919.0
2022-02-17 05:00:00+00:00,109.72,111.68,109.0,111.29,111.29,34214.0
2022-02-18 05:00:00+00:00,110.52,116.74,110.52,113.97,113.97,46045.0
2022-02-22 05:00:00+00:00,113.15,115.33,112.88,114.47,114.47,21806.0
2022-02-23 05:00:00+00:00,114.95,114.95,113.14,113.14,113.14,32190.0
2022-02-24 05:00:00+00:00,112.1,112.87,110.35,112.46,112.46,35717.0
2022-02-25 05:00:00+00:00,112.99,116.9,112.99,116.37,116.37,13254.0
2022-02-28 05:00:00+00:00,115.29,117.34,114.96,117.3,117.3,22316.0
2022-03-01 05:00:00+00:00,117.36,117.36,114.09,114.56,114.56,21328.0
2022-03-02 05:00:00+00:00,114.81,115.3,113.5,113.7,113.7,37863.0
2022-03-03 05:00:00+00:00,114.33,114.96,113.01,114.68,114.68,13614.0
2022-03-04 05:00:00+00:00,113.87,115.75,113.21,115.64,115.64,10795.0
2022-03-07 05:00:00+00:00,114.73,115.62,112.08,112.13,112.13,33060.0
2022-03-09 05:00:00+00:00,108.18,109.95,107.19,108.97,108.97,16635.0
2022-03-10 05:00:00+00:00,107.91,108.99,107.33,108.03,108.03,26822.0
2022-03-11 05:00:00+00:00,108.93,109.32,107.97,108.01,108.01,13198.0
2022-03-14 04:00:00+00:00,108.47,111.36,108.47,110.12,110.12,11865.0
2022-03-15 04:00:00+00:00,109.74,112.35,109.74,112.29,112.29,15892.0
2022-03-16 04:00:00+00:00,113.24,114.39,110.58,112.59,112.59,13204.0
2022-03-17 04:00:00+00:00,111.16,113.94,110.88,113.62,113.62,13678.0
2022-03-18 04:00:00+00:00,112.74,113.57,111.84,113.32,113.32,8398.0
2022-03-21 04:00:00+00:00,113.11,114.11,112.44,114.09,114.09,13383.0
2022-03-22 04:00:00+00:00,115.1,115.82,112.97,113.11,113.11,23446.0
2022-03-23 04:00:00+00:00,112.46,112.46,109.71,110.29,110.29,16030.0
2022-03-24 04:00:00+00:00,109.97,111.63,109.69,111.47,111.47,7659.0
2022-03-25 04:00:00+00:00,111.95,112.74,111.85,112.74,112.74,13205.0
2022-03-28 04:00:00+00:00,112.3,112.31,110.74,111.97,111.97,9003.0
2022-03-29 04:00:00+00:00,113.3,115.01,113.3,114.75,114.75,11493.0
2022-03-30 04:00:00+00:00,114.82,114.84,113.77,114.37,114.37,9585.0
2022-03-31 04:00:00+00:00,114.33,115.23,113.02,113.02,113.02,8733.0
2022-04-01 04:00:00+00:00,114.35,114.65,112.97,114.48,114.48,18154.0
2022-04-04 04:00:00+00:00,113.52,113.95,111.16,113.85,113.85,16674.0
2022-04-05 04:00:00+00:00,114.01,114.45,113.17,113.17,113.17,10202.0
2022-04-06 04:00:00+00:00,112.41,114.21,112.41,113.84,113.84,17613.0
2022-04-07 04:00:00+00:00,113.22,116.0,113.22,115.36,115.36,26962.0
2022-04-08 04:00:00+00:00,115.58,117.47,115.58,116.85,116.85,20282.0
2022-04-11 04:00:00+00:00,116.86,117.31,114.51,114.52,114.52,10237.0
2022-04-12 04:00:00+00:00,114.83,115.61,111.98,112.69,112.69,16982.0
2022-04-13 04:00:00+00:00,112.9,113.35,112.72,113.3,113.3,6652.0
2022-04-14 04:00:00+00:00,112.83,114.16,112.83,112.98,112.98,9661.0
2022-04-18 04:00:00+00:00,112.4,112.55,109.26,109.7,109.7,5328.0
2022-04-19 04:00:00+00:00,110.04,113.0,109.73,112.77,112.77,26351.0
2022-04-20 04:00:00+00:00,114.08,115.12,113.88,115.01,115.01,6773.0
2022-04-21 04:00:00+00:00,115.45,115.45,113.96,114.43,114.43,25801.0
2022-04-22 04:00:00+00:00,113.25,113.29,112.01,112.01,112.01,29348.0
2022-04-25 04:00:00+00:00,111.62,111.62,107.9,110.87,110.87,18372.0
2022-04-26 04:00:00+00:00,110.14,110.54,106.76,106.79,106.79,15983.0
2022-04-27 04:00:00+00:00,107.17,108.94,106.87,107.28,107.28,10004.0
2022-04-28 04:00:00+00:00,107.5,108.22,105.74,108.22,108.22,17741.0
2022-04-29 04:00:00+00:00,110.5,112.25,109.87,110.92,110.92,41459.0
2022-05-02 04:00:00+00:00,110.95,112.78,108.28,109.36,109.36,28255.0
2022-05-03 04:00:00+00:00,109.34,111.34,109.34,109.91,109.91,10248.0
2022-05-04 04:00:00+00:00,110.71,112.6,108.9,112.36,112.36,14944.0
2022-05-05 04:00:00+00:00,110.83,111.38,108.11,108.7,108.7,16494.0
2022-05-06 04:00:00+00:00,106.29,107.78,105.94,107.34,107.34,22453.0
2022-05-09 04:00:00+00:00,106.87,107.07,103.0,103.29,103.29,19595.0
2022-05-10 04:00:00+00:00,103.9,103.96,100.39,100.91,100.91,34492.0
2022-05-11 04:00:00+00:00,102.06,103.28,99.98,100.4,100.4,21769.0
2022-05-12 04:00:00+00:00,100.55,102.95,100.55,102.69,102.69,30793.0
2022-05-13 04:00:00+00:00,103.51,104.49,103.04,103.82,103.82,23173.0
2022-05-16 04:00:00+00:00,102.81,104.55,102.74,104.45,104.45,13756.0
2022-05-17 04:00:00+00:00,105.75,106.41,104.72,105.1,105.1,17232.0
2022-05-18 04:00:00+00:00,103.39,103.39,100.03,100.34,100.34,24063.0
2022-05-19 04:00:00+00:00,98.7,100.81,98.7,99.93,99.93,14524.0
2022-05-20 04:00:00+00:00,100.85,100.85,93.82,96.22,96.22,93343.0
2022-05-23 04:00:00+00:00,96.86,100.88,96.31,100.5,100.5,26496.0
2022-05-24 04:00:00+00:00,100.68,101.88,99.24,101.21,101.21,54291.0
2022-05-25 04:00:00+00:00,99.31,101.59,99.0,100.79,100.79,32673.0
2022-05-26 04:00:00+00:00,102.61,103.01,102.57,102.73,102.73,15752.0
2022-05-27 04:00:00+00:00,104.0,105.1,103.99,105.1,105.1,16550.0
2022-05-31 04:00:00+00:00,103.38,104.18,102.65,103.4,103.4,9988.0
2022-06-01 04:00:00+00:00,102.94,104.16,101.95,103.48,103.48,16836.0
2022-06-02 04:00:00+00:00,103.66,106.16,103.35,106.01,106.01,11506.0
2022-06-03 04:00:00+00:00,104.83,105.67,104.83,105.02,105.02,11520.0
2022-06-06 04:00:00+00:00,105.91,105.91,104.83,105.42,105.42,7330.0
2022-06-07 04:00:00+00:00,104.91,106.39,104.79,106.17,106.17,8409.0
2022-06-08 04:00:00+00:00,105.24,105.58,103.83,103.92,103.92,6841.0
2022-06-09 04:00:00+00:00,103.02,103.81,102.15,102.15,102.15,13358.0
2022-06-10 04:00:00+00:00,100.23,102.18,100.17,101.56,101.56,17215.0
2022-06-13 04:00:00+00:00,99.41,99.49,97.58,98.5,98.5,23665.0
2022-06-14 04:00:00+00:00,98.02,98.29,95.03,96.1,96.1,10603.0
2022-06-15 04:00:00+00:00,97.33,97.66,95.11,96.92,96.92,27932.0
2022-06-16 04:00:00+00:00,94.86,94.86,90.84,91.39,91.39,34063.0
2022-06-17 04:00:00+00:00,91.64,94.54,91.64,94.15,94.15,14984.0
2022-06-21 04:00:00+00:00,94.34,94.93,93.71,93.8,93.8,13554.0
2022-06-22 04:00:00+00:00,93.71,95.33,93.46,95.08,95.08,8162.0
2022-06-23 04:00:00+00:00,95.27,95.55,93.86,95.53,95.53,9921.0
2022-06-24 04:00:00+00:00,96.63,99.03,96.63,99.02,99.02,12410.0
2022-06-27 04:00:00+00:00,98.52,100.44,98.52,99.91,99.91,8026.0
2022-06-28 04:00:00+00:00,100.54,100.54,98.45,99.13,99.13,15076.0
2022-06-29 04:00:00+00:00,98.26,100.27,98.12,99.8,99.8,17668.0
2022-06-30 04:00:00+00:00,98.62,99.76,98.61,99.59,99.59,8431.0
2022-07-01 04:00:00+00:00,99.85,100.99,98.63,100.67,100.67,12417.0
2022-07-05 04:00:00+00:00,99.4,99.4,97.61,99.13,99.13,11210.0
2022-07-06 04:00:00+00:00,99.91,99.92,98.29,99.13,99.13,15536.0
2022-07-07 04:00:00+00:00,98.77,99.7,98.31,99.64,99.64,25257.0
2022-07-08 04:00:00+00:00,98.81,98.81,96.56,96.56,96.56,12871.0
2022-07-11 04:00:00+00:00,96.0,96.46,95.19,96.08,96.08,15758.0
2022-07-12 04:00:00+00:00,95.95,98.26,95.95,96.98,96.98,17879.0
2022-07-13 04:00:00+00:00,96.62,97.65,96.62,97.16,97.16,12491.0
2022-07-14 04:00:00+00:00,95.41,96.1,94.96,95.93,95.93,6570.0
2022-07-15 04:00:00+00:00,96.95,97.2,95.87,96.53,96.53,10391.0
2022-07-18 04:00:00+00:00,97.34,97.34,94.38,94.77,94.77,14499.0
2022-07-19 04:00:00+00:00,96.23,97.55,95.78,97.51,97.51,32225.0
2022-07-20 04:00:00+00:00,98.37,98.89,97.67,98.22,98.22,19707.0
2022-07-21 04:00:00+00:00,98.57,99.98,98.57,99.87,99.87,8921.0
2022-07-22 04:00:00+00:00,99.89,100.05,98.85,99.96,99.96,17902.0
2022-07-25 04:00:00+00:00,100.2,100.79,99.71,100.4,100.4,14578.0
2022-07-26 04:00:00+00:00,99.69,100.61,98.78,100.57,100.57,16212.0
2022-07-27 04:00:00+00:00,100.6,103.11,100.52,102.69,102.69,16061.0
2022-07-28 04:00:00+00:00,102.88,104.25,101.95,104.07,104.07,21723.0
2022-07-29 04:00:00+00:00,105.33,105.85,104.31,104.43,104.43,19360.0
2022-08-01 04:00:00+00:00,103.56,105.25,103.56,104.86,104.86,19368.0
2022-08-02 04:00:00+00:00,103.49,104.08,102.82,103.3,103.3,16783.0
2022-08-03 04:00:00+00:00,104.3,105.34,103.5,104.41,104.41,12622.0
2022-08-04 04:00:00+00:00,103.58,103.58,102.54,103.17,103.17,19719.0
2022-08-05 04:00:00+00:00,101.88,103.33,101.88,102.4,102.4,12203.0
2022-08-08 04:00:00+00:00,102.73,104.55,102.73,103.9,103.9,17896.0
2022-08-09 04:00:00+00:00,104.55,104.55,103.29,104.03,104.03,15367.0
2022-08-10 04:00:00+00:00,105.93,107.08,105.93,106.14,106.14,9296.0
2022-08-11 04:00:00+00:00,107.42,107.68,106.16,106.16,106.16,7942.0
2022-08-12 04:00:00+00:00,107.07,107.66,106.71,107.58,107.58,12511.0
2022-08-15 04:00:00+00:00,107.42,108.85,107.42,108.42,108.42,5461.0
2022-08-16 04:00:00+00:00,108.56,108.75,107.26,108.57,108.57,9510.0
2022-08-17 04:00:00+00:00,107.4,107.95,106.61,107.53,107.53,16620.0
2022-08-18 04:00:00+00:00,106.85,107.64,106.73,107.62,107.62,21482.0
2022-08-19 04:00:00+00:00,107.36,107.36,106.3,106.75,106.75,13836.0
2022-08-22 04:00:00+00:00,105.85,105.85,104.43,104.47,104.47,9798.0
2022-08-23 04:00:00+00:00,104.73,104.89,103.0,103.46,103.46,7422.0
2022-08-24 04:00:00+00:00,103.61,104.63,103.41,104.12,104.12,17118.0
2022-08-25 04:00:00+00:00,104.55,105.49,104.24,105.46,105.46,9533.0
2022-08-26 04:00:00+00:00,105.24,105.24,100.93,101.16,101.16,8261.0
2022-08-29 04:00:00+00:00,101.2,101.2,99.88,100.69,100.69,6523.0
2022-08-30 04:00:00+00:00,101.15,101.24,99.57,100.82,100.82,7329.0
2022-08-31 04:00:00+00:00,101.34,101.34,99.59,99.61,99.61,7556.0
2022-09-01 04:00:00+00:00,99.03,99.49,98.35,99.46,99.46,17994.0
2022-09-02 04:00:00+00:00,99.84,100.83,97.66,98.27,98.27,11369.0
2022-09-06 04:00:00+00:00,98.03,98.03,96.76,97.11,97.11,11741.0
2022-09-07 04:00:00+00:00,97.61,100.3,97.56,99.93,99.93,13700.0
2022-09-08 04:00:00+00:00,99.08,101.6,99.08,101.6,101.6,6240.0
2022-09-09 04:00:00+00:00,102.82,103.38,102.34,103.09,103.09,8177.0
2022-09-12 04:00:00+00:00,103.74,104.82,103.62,103.68,103.68,7428.0
2022-09-13 04:00:00+00:00,102.11,102.38,100.8,100.95,100.95,14881.0
2022-09-14 04:00:00+00:00,100.18,100.79,99.3,100.31,100.31,15363.0
2022-09-15 04:00:00+00:00,100.49,102.05,100.42,102.01,102.01,17887.0
2022-09-16 04:00:00+00:00,99.04,99.72,98.28,99.39,99.39,25108.0
2022-09-19 04:00:00+00:00,99.44,101.26,99.41,101.26,101.26,14097.0
2022-09-20 04:00:00+00:00,99.08,99.12,97.54,98.04,98.04,6967.0
2022-09-21 04:00:00+00:00,98.06,99.02,96.59,96.63,96.63,8870.0
2022-09-22 04:00:00+00:00,95.41,95.41,94.34,94.95,94.95,25509.0
2022-09-23 04:00:00+00:00,94.27,95.07,94.14,94.88,94.88,29671.0
2022-09-26 04:00:00+00:00,94.81,95.34,93.48,94.46,94.46,20469.0
2022-09-27 04:00:00+00:00,95.21,95.48,92.25,93.05,93.05,19087.0
2022-09-28 04:00:00+00:00,93.49,95.42,93.21,95.19,95.19,17797.0
2022-09-29 04:00:00+00:00,94.22,94.22,93.43,93.74,93.74,16175.0
2022-09-30 04:00:00+00:00,92.98,94.31,91.92,91.93,91.93,13272.0
2022-10-03 04:00:00+00:00,92.83,94.95,92.83,94.36,94.36,11734.0
2022-10-04 04:00:00+00:00,96.57,96.6,95.45,96.13,96.13,10777.0
2022-10-05 04:00:00+00:00,95.25,95.88,94.0,95.11,95.11,10049.0
2022-10-06 04:00:00+00:00,95.11,95.11,93.86,94.71,94.71,13530.0
2022-10-07 04:00:00+00:00,93.09,93.09,90.77,91.16,91.16,4819.0
2022-10-10 04:00:00+00:00,91.38,92.38,91.22,91.49,91.49,13355.0
2022-10-11 04:00:00+00:00,90.86,92.56,90.61,91.72,91.72,14490.0
2022-10-12 04:00:00+00:00,91.1,91.35,90.45,90.45,90.45,5483.0
2022-10-13 04:00:00+00:00,88.7,91.68,88.48,91.59,91.59,12730.0
2022-10-14 04:00:00+00:00,91.95,92.8,91.31,92.07,92.07,24210.0
2022-10-17 04:00:00+00:00,93.24,94.3,93.24,94.18,94.18,14252.0
2022-10-18 04:00:00+00:00,96.34,96.59,95.07,96.08,96.08,8819.0
2022-10-19 04:00:00+00:00,95.72,95.8,94.57,95.2,95.2,14832.0
2022-10-20 04:00:00+00:00,95.03,95.43,92.47,93.03,93.03,10406.0
2022-10-21 04:00:00+00:00,92.56,94.85,91.8,94.38,94.38,11361.0
2022-10-24 04:00:00+00:00,94.58,95.44,94.51,94.74,94.74,12339.0
2022-10-25 04:00:00+00:00,94.13,96.55,94.13,96.48,96.48,25671.0
2022-10-26 04:00:00+00:00,97.31,98.08,96.24,96.26,96.26,18860.0
2022-10-27 04:00:00+00:00,96.87,97.79,96.19,96.4,96.4,17390.0
2022-10-28 04:00:00+00:00,97.78,101.09,97.1,98.25,98.25,21466.0
2022-10-31 04:00:00+00:00,97.21,97.83,96.44,96.44,96.44,15692.0
2022-11-01 04:00:00+00:00,96.31,96.31,94.26,94.46,94.46,13921.0
2022-11-02 04:00:00+00:00,94.38,94.98,91.99,92.13,92.13,19889.0
2022-11-03 04:00:00+00:00,90.25,92.37,90.25,92.05,92.05,22555.0
2022-11-04 04:00:00+00:00,93.91,95.85,93.91,95.78,95.78,11555.0
2022-11-07 05:00:00+00:00,96.09,97.71,95.69,97.71,97.71,7972.0
2022-11-08 05:00:00+00:00,97.89,98.7,97.45,97.53,97.53,4755.0
2022-11-09 05:00:00+00:00,97.18,98.03,95.86,96.45,96.45,10368.0
2022-11-10 05:00:00+00:00,99.71,100.23,98.28,99.54,99.54,22242.0
2022-11-11 05:00:00+00:00,99.63,102.13,99.5,101.35,101.35,15156.0
2022-11-14 05:00:00+00:00,101.31,102.22,100.97,101.42,101.42,16971.0
2022-11-15 05:00:00+00:00,103.81,103.96,101.41,101.99,101.99,14281.0
2022-11-16 05:00:00+00:00,102.32,102.75,101.81,102.05,102.05,6709.0
2022-11-17 05:00:00+00:00,101.54,101.99,101.25,101.66,101.66,7183.0
2022-11-18 05:00:00+00:00,102.89,103.6,101.79,103.05,103.05,17251.0
2022-11-21 05:00:00+00:00,103.13,103.76,102.04,102.11,102.11,17114.0
2022-11-22 05:00:00+00:00,103.1,103.59,102.67,103.09,103.09,10471.0
2022-11-23 05:00:00+00:00,103.15,103.81,102.84,103.29,103.29,9558.0
2022-11-25 05:00:00+00:00,102.9,103.57,102.65,103.11,103.11,8056.0
2022-11-28 05:00:00+00:00,101.86,102.14,100.45,100.67,100.67,18150.0
2022-11-29 05:00:00+00:00,100.53,101.17,100.13,100.51,100.51,9600.0
2022-11-30 05:00:00+00:00,99.75,103.18,98.79,103.12,103.12,11500.0
2022-12-01 05:00:00+00:00,104.09,104.58,103.57,104.22,104.22,12881.0
2022-12-02 05:00:00+00:00,103.36,105.46,103.36,105.3,105.3,6527.0
2022-12-05 05:00:00+00:00,103.55,103.9,103.29,103.81,103.81,12251.0
2022-12-06 05:00:00+00:00,103.76,104.1,102.6,104.06,104.06,24519.0
2022-12-07 05:00:00+00:00,104.43,104.91,103.32,103.39,103.39,8686.0
2022-12-08 05:00:00+00:00,103.66,104.93,103.66,104.93,104.93,15036.0
2022-12-09 05:00:00+00:00,104.88,105.98,104.68,105.01,105.01,31818.0
2022-12-12 05:00:00+00:00,105.44,105.73,104.85,105.14,105.14,15313.0
2022-12-13 05:00:00+00:00,107.78,107.94,104.67,105.24,105.24,20368.0
2022-12-14 05:00:00+00:00,105.45,107.14,104.37,105.25,105.25,43746.0
2022-12-15 05:00:00+00:00,104.74,105.53,104.41,104.59,104.59,19922.0
2022-12-16 05:00:00+00:00,104.35,105.28,103.51,104.49,104.49,42723.0
2022-12-19 05:00:00+00:00,103.96,105.37,102.93,103.3,103.3,16818.0
2022-12-20 05:00:00+00:00,104.2,105.11,104.2,104.29,104.29,12029.0
2022-12-21 05:00:00+00:00,105.41,107.44,105.41,107.4,107.4,20558.0
2022-12-22 05:00:00+00:00,106.6,106.73,104.58,105.7,105.7,8739.0
2022-12-23 05:00:00+00:00,105.65,107.13,105.65,107.01,107.01,10481.0
2022-12-27 05:00:00+00:00,106.76,107.86,106.76,107.68,107.68,8554.0
2022-12-28 05:00:00+00:00,108.46,108.61,106.07,106.17,106.17,7136.0
2022-12-29 05:00:00+00:00,106.59,108.08,106.59,107.78,107.78,12462.0
2022-12-30 05:00:00+00:00,107.59,107.59,106.07,106.92,106.92,9294.0
2023-01-03 05:00:00+00:00,107.52,107.81,106.46,107.26,107.26,16405.0
2023-01-04 05:00:00+00:00,108.68,108.99,107.29,108.15,108.15,9476.0
2023-01-05 05:00:00+00:00,106.2,109.79,106.2,109.12,109.12,11787.0
2023-01-06 05:00:00+00:00,109.9,111.17,109.9,110.85,110.85,13634.0
2023-01-09 05:00:00+00:00,111.25,112.26,110.18,110.18,110.18,12690.0
2023-01-10 05:00:00+00:00,110.38,110.87,109.88,110.22,110.22,13385.0
2023-01-11 05:00:00+00:00,111.2,111.28,110.34,110.34,110.34,9102.0
2023-01-12 05:00:00+00:00,110.62,110.62,109.78,110.41,110.41,17912.0
2023-01-13 05:00:00+00:00,110.19,111.01,110.19,110.79,110.79,16078.0
2023-01-17 05:00:00+00:00,110.95,111.08,109.83,110.86,110.86,23090.0
2023-01-18 05:00:00+00:00,111.39,111.4,109.07,109.09,109.09,8621.0
2023-01-19 05:00:00+00:00,108.35,109.18,107.95,108.93,108.93,23210.0
2023-01-20 05:00:00+00:00,109.47,110.14,108.69,110.14,110.14,30347.0
2023-01-23 05:00:00+00:00,109.9,110.49,109.36,110.19,110.19,25707.0
2023-01-24 05:00:00+00:00,109.91,110.03,108.68,109.81,109.81,30545.0
2023-01-25 05:00:00+00:00,108.9,109.32,107.53,109.08,109.08,29337.0
2023-01-26 05:00:00+00:00,109.4,109.75,108.91,109.73,109.73,27740.0
2023-01-27 05:00:00+00:00,109.36,109.77,108.83,109.61,109.61,45456.0
2023-01-30 05:00:00+00:00,108.91,110.07,108.91,110.07,110.07,18585.0
2023-01-31 05:00:00+00:00,110.19,113.01,110.19,112.41,112.41,20393.0
2023-02-01 05:00:00+00:00,112.16,115.14,111.72,114.26,114.26,14837.0
2023-02-02 05:00:00+00:00,114.02,115.35,113.92,114.48,114.48,19924.0
2023-02-03 05:00:00+00:00,113.44,113.44,112.44,112.65,112.65,40371.0
2023-02-06 05:00:00+00:00,112.12,112.27,110.81,110.83,110.83,21366.0
2023-02-07 05:00:00+00:00,109.01,109.67,108.13,109.49,109.49,16707.0
2023-02-08 05:00:00+00:00,108.93,109.32,107.92,107.92,107.92,12196.0
2023-02-09 05:00:00+00:00,108.44,108.91,106.61,106.63,106.63,16861.0
2023-02-10 05:00:00+00:00,105.95,106.5,105.49,106.49,106.49,21775.0
2023-02-13 05:00:00+00:00,106.58,107.8,106.58,107.1,107.1,18176.0
2023-02-14 05:00:00+00:00,107.28,108.01,107.28,107.59,107.59,7065.0
2023-02-15 05:00:00+00:00,106.32,107.61,106.24,107.56,107.56,14059.0
2023-02-16 05:00:00+00:00,106.44,108.75,106.17,107.96,107.96,34708.0
2023-02-17 05:00:00+00:00,112.1,118.3,112.1,113.98,113.98,52032.0
2023-02-21 05:00:00+00:00,112.92,112.97,110.49,112.26,112.26,54108.0
2023-02-22 05:00:00+00:00,112.43,112.85,111.91,111.94,111.94,15344.0
2023-02-23 05:00:00+00:00,112.54,112.54,110.42,111.78,111.78,23194.0
2023-02-24 05:00:00+00:00,111.6,111.98,110.69,111.98,111.98,23194.0
2023-02-27 05:00:00+00:00,113.42,114.14,113.18,113.88,113.88,14022.0
2023-02-28 05:00:00+00:00,113.95,115.15,113.8,113.95,113.95,23774.0
2023-03-01 05:00:00+00:00,114.32,114.71,113.55,114.61,114.61,13405.0
2023-03-02 05:00:00+00:00,114.68,116.06,114.45,115.6,115.6,15235.0
2023-03-03 05:00:00+00:00,115.81,117.32,115.16,117.26,117.26,21555.0
2023-03-06 05:00:00+00:00,116.68,116.95,113.74,114.12,114.12,16465.0
2023-03-07 05:00:00+00:00,113.86,114.47,113.52,113.87,113.87,27829.0
2023-03-08 05:00:00+00:00,113.48,113.78,112.4,112.51,112.51,19546.0
2023-03-09 05:00:00+00:00,113.32,113.57,111.85,111.85,111.85,15477.0
2023-03-10 05:00:00+00:00,111.22,111.46,109.62,109.95,109.95,21167.0
2023-03-13 04:00:00+00:00,109.26,110.34,109.03,109.3,109.3,21333.0
2023-03-14 04:00:00+00:00,111.33,112.42,110.72,112.42,112.42,18793.0
2023-03-15 04:00:00+00:00,110.32,110.34,107.69,108.6,108.6,12950.0
2023-03-16 04:00:00+00:00,108.24,110.42,107.99,109.81,109.81,21351.0
2023-03-17 04:00:00+00:00,108.92,108.92,107.35,107.83,107.83,13888.0
2023-03-20 04:00:00+00:00,109.1,110.63,109.1,110.07,110.07,7437.0
2023-03-21 04:00:00+00:00,111.24,111.24,109.72,110.14,110.14,6700.0
2023-03-22 04:00:00+00:00,110.05,111.2,109.68,109.68,109.68,12272.0
2023-03-23 04:00:00+00:00,109.66,110.68,108.19,109.07,109.07,6914.0
2023-03-24 04:00:00+00:00,107.77,110.16,107.55,109.94,109.94,11199.0
2023-03-27 04:00:00+00:00,110.86,112.04,110.86,111.05,111.05,13645.0
2023-03-28 04:00:00+00:00,111.12,112.29,111.12,112.18,112.18,12990.0
2023-03-29 04:00:00+00:00,112.94,113.03,112.35,112.97,112.97,4810.0
2023-03-30 04:00:00+00:00,113.64,113.64,112.35,113.1,113.1,8962.0
2023-03-31 04:00:00+00:00,114.12,115.36,114.08,115.33,115.33,13384.0
2023-04-03 04:00:00+00:00,115.1,115.72,114.87,115.69,115.69,12303.0
2023-04-04 04:00:00+00:00,114.88,114.88,113.93,114.78,114.78,12406.0
2023-04-05 04:00:00+00:00,115.38,116.25,115.1,116.2,116.2,15719.0
2023-04-06 04:00:00+00:00,115.81,116.12,115.39,116.12,116.12,10237.0
2023-04-10 04:00:00+00:00,116.12,116.31,115.53,116.17,116.17,14731.0
2023-04-11 04:00:00+00:00,116.44,116.92,116.12,116.12,116.12,8747.0
2023-04-12 04:00:00+00:00,116.6,116.73,115.35,115.48,115.48,9207.0
2023-04-13 04:00:00+00:00,115.54,117.07,115.2,116.82,116.82,8015.0
2023-04-14 04:00:00+00:00,116.3,117.13,115.46,116.32,116.32,17140.0
2023-04-17 04:00:00+00:00,116.38,116.75,115.72,116.72,116.72,4888.0
2023-04-18 04:00:00+00:00,116.43,116.51,115.31,115.82,115.82,20912.0
2023-04-19 04:00:00+00:00,115.6,116.03,115.29,115.74,115.74,19525.0
2023-04-20 04:00:00+00:00,115.62,116.74,115.62,116.13,116.13,26985.0
2023-04-21 04:00:00+00:00,116.58,118.08,116.03,117.72,117.72,26254.0
2023-04-24 04:00:00+00:00,117.67,118.23,116.86,117.46,117.46,10412.0
2023-04-25 04:00:00+00:00,116.83,116.83,115.13,115.21,115.21,11772.0
2023-04-26 04:00:00+00:00,114.71,114.71,112.88,112.99,112.99,22956.0
2023-04-27 04:00:00+00:00,113.08,113.71,112.11,113.66,113.66,24367.0
2023-04-28 04:00:00+00:00,115.34,116.6,114.68,115.56,115.56,25423.0
2023-05-01 04:00:00+00:00,117.78,119.4,117.66,118.71,118.71,12780.0
2023-05-02 04:00:00+00:00,117.93,117.93,112.94,117.48,117.48,21606.0
2023-05-03 04:00:00+00:00,117.73,118.41,117.29,117.29,117.29,17785.0
2023-05-04 04:00:00+00:00,116.8,117.29,115.94,116.3,116.3,11867.0
2023-05-05 04:00:00+00:00,116.72,119.2,116.72,119.02,119.02,11511.0
2023-05-08 04:00:00+00:00,119.39,119.53,118.33,118.94,118.94,8930.0
2023-05-09 04:00:00+00:00,117.94,118.26,117.16,118.01,118.01,23408.0
2023-05-10 04:00:00+00:00,118.51,118.51,115.98,117.28,117.28,32397.0
2023-05-11 04:00:00+00:00,117.28,117.28,116.5,116.8,116.8,16412.0
2023-05-12 04:00:00+00:00,117.49,118.29,116.8,118.22,118.22,24776.0
2023-05-15 04:00:00+00:00,117.87,118.44,117.62,117.92,117.92,12660.0
2023-05-16 04:00:00+00:00,116.97,116.97,115.71,115.81,115.81,11468.0
2023-05-17 04:00:00+00:00,115.41,116.44,115.28,116.44,116.44,6793.0
2023-05-18 04:00:00+00:00,115.45,116.47,115.45,116.43,116.43,6670.0
2023-05-19 04:00:00+00:00,117.21,117.33,116.12,116.48,116.48,9768.0
2023-05-22 04:00:00+00:00,116.51,116.97,115.45,115.6,115.6,9744.0
2023-05-23 04:00:00+00:00,115.13,115.73,114.56,114.71,114.71,10200.0
2023-05-24 04:00:00+00:00,113.43,113.64,112.58,112.58,112.58,18225.0
2023-05-25 04:00:00+00:00,112.11,112.82,111.07,111.21,111.21,12334.0
2023-05-26 04:00:00+00:00,110.78,112.01,110.78,111.63,111.63,14317.0
2023-05-30 04:00:00+00:00,112.27,112.27,110.72,111.15,111.15,9799.0
2023-05-31 04:00:00+00:00,109.55,110.35,109.51,110.08,110.08,7991.0
2023-06-01 04:00:00+00:00,109.99,111.04,109.92,110.54,110.54,9600.0
2023-06-02 04:00:00+00:00,111.28,112.27,111.28,111.67,111.67,21352.0
2023-06-05 04:00:00+00:00,111.53,111.57,110.52,110.66,110.66,14533.0
2023-06-06 04:00:00+00:00,111.01,112.08,110.99,111.9,111.9,20310.0
2023-06-07 04:00:00+00:00,112.08,113.2,111.63,112.91,112.91,26609.0
2023-06-08 04:00:00+00:00,112.85,113.51,112.39,112.81,112.81,15232.0
2023-06-09 04:00:00+00:00,112.8,112.9,111.95,112.25,112.25,22320.0
2023-06-12 04:00:00+00:00,112.19,113.13,112.15,112.92,112.92,67243.0
2023-06-13 04:00:00+00:00,113.02,113.81,112.41,112.72,112.72,31152.0
2023-06-14 04:00:00+00:00,113.18,113.26,112.06,112.64,112.64,16222.0
2023-06-15 04:00:00+00:00,112.74,113.9,112.53,113.55,113.55,28049.0
2023-06-16 04:00:00+00:00,113.69,114.67,113.01,114.6,114.6,19640.0
2023-06-20 04:00:00+00:00,114.03,114.03,113.3,113.3,113.3,10843.0
2023-06-21 04:00:00+00:00,111.98,112.16,111.05,111.17,111.17,13649.0
2023-06-22 04:00:00+00:00,110.9,111.58,110.03,111.58,111.58,12797.0
2023-06-23 04:00:00+00:00,110.22,111.1,109.82,110.51,110.51,11097.0
2023-06-26 04:00:00+00:00,111.34,111.78,110.89,111.07,111.07,6885.0
2023-06-27 04:00:00+00:00,111.07,112.34,111.07,112.26,112.26,14223.0
2023-06-28 04:00:00+00:00,110.84,111.08,110.32,110.91,110.91,17482.0
2023-06-29 04:00:00+00:00,110.7,112.9,110.7,112.36,112.36,33302.0
2023-06-30 04:00:00+00:00,112.53,113.8,112.53,113.48,113.48,19933.0
2023-07-03 04:00:00+00:00,113.5,114.36,113.5,113.95,113.95,4646.0
2023-07-05 04:00:00+00:00,112.37,112.37,110.47,110.61,110.61,6928.0
2023-07-06 04:00:00+00:00,109.91,110.26,109.35,110.09,110.09,25974.0
2023-07-07 04:00:00+00:00,110.47,112.83,110.47,111.17,111.17,19749.0
2023-07-10 04:00:00+00:00,111.16,112.74,111.08,112.0,112.0,14951.0
2023-07-11 04:00:00+00:00,111.8,113.1,111.14,113.05,113.05,10545.0
2023-07-12 04:00:00+00:00,113.89,114.96,113.84,114.38,114.38,15051.0
2023-07-13 04:00:00+00:00,114.57,114.84,114.2,114.5,114.5,5987.0
2023-07-14 04:00:00+00:00,114.92,116.25,114.36,115.86,115.86,16413.0
2023-07-17 04:00:00+00:00,116.21,116.86,115.94,116.69,116.69,8634.0
2023-07-18 04:00:00+00:00,117.06,117.67,116.24,116.58,116.58,7356.0
2023-07-19 04:00:00+00:00,116.31,116.68,115.91,116.57,116.57,11656.0
2023-07-20 04:00:00+00:00,117.49,117.49,116.33,116.79,116.79,9497.0
2023-07-21 04:00:00+00:00,117.31,117.48,116.65,117.35,117.35,10504.0
2023-07-24 04:00:00+00:00,117.26,117.3,116.18,117.14,117.14,11922.0
2023-07-25 04:00:00+00:00,116.76,118.34,116.76,118.13,118.13,9571.0
2023-07-26 04:00:00+00:00,117.78,118.14,116.83,117.84,117.84,14826.0
2023-07-27 04:00:00+00:00,118.17,118.17,116.8,117.02,117.02,15960.0
2023-07-28 04:00:00+00:00,120.5,123.77,120.5,121.57,121.57,34818.0
2023-07-31 04:00:00+00:00,121.32,121.32,118.79,119.32,119.32,18335.0
2023-08-01 04:00:00+00:00,118.58,120.29,118.58,120.27,120.27,19703.0
2023-08-02 04:00:00+00:00,118.72,120.11,117.82,120.09,120.09,21437.0
2023-08-03 04:00:00+00:00,119.25,120.42,118.59,118.59,118.59,10143.0
2023-08-04 04:00:00+00:00,119.5,119.86,118.4,118.46,118.46,6037.0
2023-08-07 04:00:00+00:00,118.79,119.32,118.6,118.95,118.95,6873.0
2023-08-08 04:00:00+00:00,118.37,119.16,118.04,118.97,118.97,18821.0
2023-08-09 04:00:00+00:00,119.28,121.09,119.28,119.59,119.59,21968.0
2023-08-10 04:00:00+00:00,120.65,121.02,119.85,120.19,120.19,4363.0
2023-08-11 04:00:00+00:00,120.03,120.91,119.85,120.37,120.37,29978.0
2023-08-14 04:00:00+00:00,119.78,120.72,119.78,120.72,120.72,5938.0
2023-08-15 04:00:00+00:00,120.05,120.64,119.81,119.81,119.81,7445.0
2023-08-16 04:00:00+00:00,120.07,120.78,119.33,119.33,119.33,12184.0
2023-08-17 04:00:00+00:00,119.77,120.25,119.45,119.55,119.55,7505.0
2023-08-18 04:00:00+00:00,119.31,121.2,119.3,121.11,121.11,27421.0
2023-08-21 04:00:00+00:00,120.85,122.09,120.85,121.57,121.57,17808.0
2023-08-22 04:00:00+00:00,122.27,123.29,120.6,120.74,120.74,25763.0
2023-08-23 04:00:00+00:00,120.92,121.29,120.28,121.13,121.13,13270.0
2023-08-24 04:00:00+00:00,121.8,123.2,121.8,122.84,122.84,21337.0
2023-08-25 04:00:00+00:00,123.01,125.36,122.82,125.22,125.22,35646.0
2023-08-28 04:00:00+00:00,125.97,127.19,125.82,127.1,127.1,27695.0
2023-08-29 04:00:00+00:00,127.24,129.56,127.22,129.46,129.46,18695.0
2023-08-30 04:00:00+00:00,129.96,130.56,129.53,130.52,130.52,14299.0
2023-08-31 04:00:00+00:00,130.94,131.19,129.86,130.19,130.19,25294.0
2023-09-01 04:00:00+00:00,131.05,131.05,130.15,130.15,130.15,13799.0
2023-09-05 04:00:00+00:00,127.71,127.71,125.19,125.28,125.28,19309.0
2023-09-06 04:00:00+00:00,124.87,125.15,123.98,124.15,124.15,14869.0
2023-09-07 04:00:00+00:00,124.61,124.61,122.94,123.09,123.09,15961.0
2023-09-08 04:00:00+00:00,123.43,124.37,122.88,123.06,123.06,8799.0
2023-09-11 04:00:00+00:00,124.62,125.53,124.2,124.73,124.73,24709.0
2023-09-12 04:00:00+00:00,124.51,124.98,123.35,124.25,124.25,21769.0
2023-09-13 04:00:00+00:00,124.2,124.2,122.94,123.12,123.12,17259.0
2023-09-14 04:00:00+00:00,124.6,125.0,124.35,124.5,124.5,22094.0
2023-09-15 04:00:00+00:00,124.84,124.84,122.96,123.63,123.63,11624.0
2023-09-18 04:00:00+00:00,123.76,123.85,122.74,123.39,123.39,6951.0
2023-09-19 04:00:00+00:00,122.55,123.06,121.9,123.06,123.06,13644.0
2023-09-20 04:00:00+00:00,123.5,123.8,122.32,122.41,122.41,12171.0
2023-09-21 04:00:00+00:00,122.12,122.12,120.02,120.04,120.04,31766.0
2023-09-22 04:00:00+00:00,120.61,120.65,120.0,120.5,120.5,24751.0
2023-09-25 04:00:00+00:00,120.05,121.86,120.05,121.81,121.81,14488.0
2023-09-26 04:00:00+00:00,121.36,121.91,121.02,121.38,121.38,39499.0
2023-09-27 04:00:00+00:00,121.15,121.63,120.68,121.29,121.29,23041.0
2023-09-28 04:00:00+00:00,122.05,123.37,121.98,123.2,123.2,15938.0
2023-09-29 04:00:00+00:00,124.2,124.55,122.8,122.8,122.8,17242.0
2023-10-02 04:00:00+00:00,122.65,123.21,121.83,122.78,122.78,17026.0
2023-10-03 04:00:00+00:00,122.19,123.04,120.36,120.62,120.62,8452.0
2023-10-04 04:00:00+00:00,121.5,122.4,120.13,121.95,121.95,9641.0
2023-10-05 04:00:00+00:00,122.4,122.4,120.8,121.51,121.51,63726.0
2023-10-06 04:00:00+00:00,121.32,124.37,121.26,124.21,124.21,31089.0
2023-10-09 04:00:00+00:00,124.03,124.88,123.43,124.7,124.7,15289.0
2023-10-10 04:00:00+00:00,125.01,126.2,124.28,124.29,124.29,15349.0
2023-10-11 04:00:00+00:00,125.24,125.29,124.37,125.23,125.23,13660.0
2023-10-12 04:00:00+00:00,124.6,125.08,122.85,123.24,123.24,19458.0
2023-10-13 04:00:00+00:00,123.9,124.32,123.18,123.69,123.69,27742.0
2023-10-16 04:00:00+00:00,124.86,125.05,124.04,124.52,124.52,18320.0
2023-10-17 04:00:00+00:00,124.18,126.03,124.18,125.19,125.19,22331.0
2023-10-18 04:00:00+00:00,124.22,125.13,124.22,124.48,124.48,14879.0
2023-10-19 04:00:00+00:00,124.13,124.83,123.2,123.48,123.48,18442.0
2023-10-20 04:00:00+00:00,123.1,123.27,119.83,119.99,119.99,21344.0
2023-10-23 04:00:00+00:00,119.52,120.7,119.05,119.32,119.32,24217.0
2023-10-24 04:00:00+00:00,120.45,121.5,120.06,121.09,121.09,19181.0
2023-10-25 04:00:00+00:00,120.8,121.92,120.11,120.56,120.56,20666.0
2023-10-26 04:00:00+00:00,121.66,123.33,119.9,121.55,121.55,24018.0
2023-10-27 04:00:00+00:00,120.96,120.96,118.6,119.35,119.35,18210.0
2023-10-30 04:00:00+00:00,119.47,120.49,119.42,120.36,120.36,22512.0
2023-10-31 04:00:00+00:00,120.5,120.67,120.15,120.39,120.39,12777.0
2023-11-01 04:00:00+00:00,120.52,121.5,120.4,121.04,121.04,9823.0
2023-11-02 04:00:00+00:00,122.42,122.42,121.23,121.75,121.75,11242.0
2023-11-03 04:00:00+00:00,122.76,124.07,122.76,123.68,123.68,7232.0
2023-11-06 05:00:00+00:00,123.3,123.8,123.16,123.42,123.42,9348.0
2023-11-07 05:00:00+00:00,122.49,123.1,122.49,122.7,122.7,7771.0
2023-11-08 05:00:00+00:00,123.04,123.5,122.67,123.33,123.33,8250.0
2023-11-09 05:00:00+00:00,123.59,123.59,122.42,122.61,122.61,4585.0
2023-11-10 05:00:00+00:00,122.5,123.91,122.17,123.91,123.91,7693.0
2023-11-13 05:00:00+00:00,123.31,123.64,122.55,122.73,122.73,9903.0
2023-11-14 05:00:00+00:00,124.39,125.96,124.39,125.86,125.86,7329.0
2023-11-15 05:00:00+00:00,126.53,126.84,125.59,125.7,125.7,9480.0
2023-11-16 05:00:00+00:00,126.01,126.64,125.29,125.66,125.66,10423.0
2023-11-17 05:00:00+00:00,126.6,127.09,125.83,126.02,126.02,7284.0
2023-11-20 05:00:00+00:00,124.89,125.77,124.89,125.44,125.44,9454.0
2023-11-21 05:00:00+00:00,125.72,126.08,125.64,125.99,125.99,7528.0
2023-11-22 05:00:00+00:00,127.07,127.21,126.52,126.66,126.66,11055.0
2023-11-24 05:00:00+00:00,126.72,126.91,126.46,126.6,126.6,5449.0
2023-11-27 05:00:00+00:00,125.28,126.42,124.99,125.12,125.12,16674.0
2023-11-28 05:00:00+00:00,124.92,124.92,123.69,123.78,123.78,8211.0
2023-11-29 05:00:00+00:00,124.33,124.54,123.12,123.53,123.53,14813.0
2023-11-30 05:00:00+00:00,123.75,125.19,122.99,125.04,125.04,14965.0
2023-12-01 05:00:00+00:00,125.27,126.55,125.27,126.07,126.07,11228.0
2023-12-04 05:00:00+00:00,126.17,126.99,125.77,126.48,126.48,13538.0
2023-12-05 05:00:00+00:00,125.33,125.75,124.1,124.21,124.21,13466.0
2023-12-06 05:00:00+00:00,125.04,125.38,124.28,124.52,124.52,8439.0
2023-12-07 05:00:00+00:00,124.29,125.14,124.29,124.69,124.69,9145.0
2023-12-08 05:00:00+00:00,124.74,125.62,123.96,125.39,125.39,12984.0
2023-12-11 05:00:00+00:00,125.08,125.79,125.01,125.79,125.79,11693.0
2023-12-12 05:00:00+00:00,124.82,125.96,124.82,125.58,125.58,8627.0
2023-12-13 05:00:00+00:00,125.81,126.92,125.43,126.6,126.6,15052.0
2023-12-14 05:00:00+00:00,127.75,128.01,125.11,125.57,125.57,15679.0
2023-12-15 05:00:00+00:00,125.42,126.4,124.17,124.23,124.23,13129.0
2023-12-18 05:00:00+00:00,124.49,125.32,124.06,125.25,125.25,15503.0
2023-12-19 05:00:00+00:00,125.99,125.99,124.21,124.3,124.3,11849.0
2023-12-20 05:00:00+00:00,124.41,124.96,123.77,123.8,123.8,16614.0
2023-12-21 05:00:00+00:00,124.23,124.23,123.1,124.06,124.06,15486.0
2023-12-22 05:00:00+00:00,124.47,125.15,124.33,124.37,124.37,17014.0
2023-12-26 05:00:00+00:00,124.6,124.88,123.89,123.89,123.89,14070.0
2023-12-27 05:00:00+00:00,124.18,124.56,123.33,123.33,123.33,13602.0
2023-12-28 05:00:00+00:00,123.57,123.63,122.57,123.42,123.42,15713.0
2023-12-29 05:00:00+00:00,122.98,122.98,121.75,121.89,121.89,10379.0
2024-01-02 05:00:00+00:00,122.1,122.27,120.53,121.03,121.03,14817.0
2024-01-03 05:00:00+00:00,124.17,125.29,123.17,123.55,123.55,22799.0
2024-01-04 05:00:00+00:00,123.51,123.98,122.32,122.42,122.42,18690.0
2024-01-05 05:00:00+00:00,122.07,122.46,121.42,122.46,122.46,16634.0
2024-01-08 05:00:00+00:00,122.25,122.51,120.58,122.51,122.51,14947.0
2024-01-09 05:00:00+00:00,122.17,122.77,121.16,122.77,122.77,12360.0
2024-01-10 05:00:00+00:00,122.87,123.54,122.46,123.26,123.26,14928.0
2024-01-11 05:00:00+00:00,123.55,125.1,123.12,124.96,124.96,16347.0
2024-01-12 05:00:00+00:00,125.66,125.72,124.38,124.61,124.61,6365.0
2024-01-16 05:00:00+00:00,123.88,124.87,123.83,124.87,124.87,10013.0
2024-01-17 05:00:00+00:00,124.04,125.35,124.04,124.83,124.83,25261.0
2024-01-18 05:00:00+00:00,124.87,128.07,124.65,127.18,127.18,13424.0
2024-01-19 05:00:00+00:00,126.84,129.41,126.79,129.04,129.04,18862.0
2024-01-22 05:00:00+00:00,128.95,129.87,128.67,129.25,129.25,10231.0
2024-01-23 05:00:00+00:00,129.61,129.89,128.58,129.87,129.87,9460.0
2024-01-24 05:00:00+00:00,130.34,130.34,128.7,128.96,128.96,8183.0
2024-01-25 05:00:00+00:00,129.73,129.73,128.56,129.29,129.29,12417.0
2024-01-26 05:00:00+00:00,129.47,130.54,129.47,129.84,129.84,14555.0
2024-01-29 05:00:00+00:00,129.02,130.16,128.63,130.12,130.12,11199.0
2024-01-30 05:00:00+00:00,130.16,131.11,130.16,130.33,130.33,9045.0
2024-01-31 05:00:00+00:00,130.62,130.88,127.75,128.35,128.35,13100.0
2024-02-01 05:00:00+00:00,129.36,129.45,128.42,128.82,128.82,13780.0
2024-02-02 05:00:00+00:00,128.22,129.2,127.61,128.5,128.5,8237.0
2024-02-05 05:00:00+00:00,126.97,129.77,126.89,129.16,129.16,16018.0
2024-02-06 05:00:00+00:00,129.3,129.88,127.87,129.64,129.64,17710.0
2024-02-07 05:00:00+00:00,128.72,130.83,128.6,130.36,130.36,18252.0
2024-02-08 05:00:00+00:00,130.7,133.03,130.22,130.68,130.68,30571.0
2024-02-09 05:00:00+00:00,131.49,137.56,131.49,137.39,137.39,21456.0
2024-02-12 05:00:00+00:00,137.97,137.97,136.0,136.05,136.05,18099.0
2024-02-13 05:00:00+00:00,134.4,135.3,133.51,134.39,134.39,7940.0
2024-02-14 05:00:00+00:00,134.32,135.81,133.71,135.65,135.65,21570.0
2024-02-15 05:00:00+00:00,136.08,136.22,133.02,133.47,133.47,26673.0
2024-02-16 05:00:00+00:00,133.72,136.32,133.72,135.94,135.94,32534.0
2024-02-20 05:00:00+00:00,135.62,138.48,135.62,137.98,137.98,22058.0
2024-02-21 05:00:00+00:00,138.23,138.3,137.38,138.29,138.29,19087.0
2024-02-22 05:00:00+00:00,138.69,140.77,138.69,139.74,139.74,31701.0
2024-02-23 05:00:00+00:00,140.21,140.25,139.07,139.8,139.8,7390.0
2024-02-26 05:00:00+00:00,139.72,140.37,139.18,140.37,140.37,11688.0
2024-02-27 05:00:00+00:00,140.26,140.26,138.21,138.86,138.86,16826.0
2024-02-28 05:00:00+00:00,138.12,139.61,138.11,138.89,138.89,9663.0
2024-02-29 05:00:00+00:00,139.59,139.59,138.26,138.84,138.84,5991.0
2024-03-01 05:00:00+00:00,138.23,139.1,138.21,138.82,138.82,8722.0
2024-03-04 05:00:00+00:00,138.93,140.45,138.93,140.35,140.35,18397.0
2024-03-05 05:00:00+00:00,140.36,141.5,140.36,140.73,140.73,12738.0
2024-03-06 05:00:00+00:00,141.4,141.92,140.92,141.5,141.5,10257.0
2024-03-07 05:00:00+00:00,142.42,143.32,142.18,143.05,143.05,13359.0
2024-03-08 05:00:00+00:00,142.9,143.37,141.39,141.4,141.4,9674.0
2024-03-11 04:00:00+00:00,141.65,141.66,140.33,141.18,141.18,12353.0
2024-03-12 04:00:00+00:00,140.69,141.15,139.99,140.68,140.68,6996.0
2024-03-13 04:00:00+00:00,141.33,141.33,139.38,139.39,139.39,9828.0
2024-03-14 04:00:00+00:00,139.68,139.86,138.81,139.44,139.44,10531.0
2024-03-15 04:00:00+00:00,139.86,140.67,139.2,139.25,139.25,18140.0
2024-03-18 04:00:00+00:00,139.31,139.38,137.41,137.55,137.55,11624.0
2024-03-19 04:00:00+00:00,138.01,138.69,137.85,137.9,137.9,11396.0
2024-03-20 04:00:00+00:00,138.24,138.29,137.71,138.26,138.26,10824.0
2024-03-21 04:00:00+00:00,138.6,139.91,138.03,139.56,139.56,13222.0
2024-03-22 04:00:00+00:00,140.37,140.46,139.42,139.84,139.84,15467.0
2024-03-25 04:00:00+00:00,140.04,141.97,139.92,141.28,141.28,15448.0
2024-03-26 04:00:00+00:00,141.97,142.64,141.21,141.73,141.73,23528.0
2024-03-27 04:00:00+00:00,142.43,143.4,142.41,142.96,142.96,11565.0
2024-03-28 04:00:00+00:00,143.18,143.41,142.0,142.17,142.17,8172.0
2024-04-01 04:00:00+00:00,141.74,141.75,140.48,140.62,140.62,15482.0
2024-04-02 04:00:00+00:00,139.72,139.97,138.93,138.99,138.99,5909.0
2024-04-03 04:00:00+00:00,139.32,139.42,138.49,139.35,139.35,8791.0
2024-04-04 04:00:00+00:00,139.52,140.85,139.52,140.09,140.09,18716.0
2024-04-05 04:00:00+00:00,139.81,141.04,139.7,140.16,140.16,15926.0
2024-04-08 04:00:00+00:00,139.55,140.49,138.8,138.89,138.89,13083.0
2024-04-09 04:00:00+00:00,138.91,138.91,137.84,138.75,138.75,7823.0
2024-04-10 04:00:00+00:00,137.31,138.42,137.31,137.85,137.85,6054.0
2024-04-11 04:00:00+00:00,138.42,138.42,137.08,137.56,137.56,11368.0
2024-04-12 04:00:00+00:00,136.78,136.78,134.53,135.75,135.75,14157.0
2024-04-15 04:00:00+00:00,137.2,138.14,136.54,136.61,136.61,15862.0
2024-04-16 04:00:00+00:00,136.48,137.52,135.77,137.06,137.06,18182.0
2024-04-17 04:00:00+00:00,137.2,137.73,136.76,136.76,136.76,27345.0
2024-04-18 04:00:00+00:00,136.78,137.76,136.62,137.49,137.49,17588.0
2024-04-19 04:00:00+00:00,137.76,137.8,137.16,137.74,137.74,14652.0
2024-04-22 04:00:00+00:00,138.2,139.52,138.19,138.63,138.63,19467.0
2024-04-23 04:00:00+00:00,138.2,139.3,138.01,138.5,138.5,13588.0
2024-04-24 04:00:00+00:00,139.13,139.54,138.7,138.84,138.84,28734.0
2024-04-25 04:00:00+00:00,138.22,139.81,137.91,139.01,139.01,30417.0
2024-04-26 04:00:00+00:00,142.68,146.29,141.91,142.07,142.07,18024.0
2024-04-29 04:00:00+00:00,143.88,146.72,143.64,144.88,144.88,35218.0
2024-04-30 04:00:00+00:00,144.69,144.69,142.9,143.01,143.01,16092.0
2024-05-01 04:00:00+00:00,143.6,145.84,143.6,144.23,144.23,22505.0
2024-05-02 04:00:00+00:00,144.71,145.1,144.05,144.62,144.62,21550.0
2024-05-03 04:00:00+00:00,145.22,145.73,143.74,145.52,145.52,17298.0
2024-05-06 04:00:00+00:00,146.04,147.59,145.88,147.5,147.5,13216.0
2024-05-07 04:00:00+00:00,147.98,149.04,147.31,148.41,148.41,22712.0
2024-05-08 04:00:00+00:00,148.55,149.52,148.4,149.49,149.49,12676.0
2024-05-09 04:00:00+00:00,149.24,149.52,147.42,147.7,147.7,11111.0
2024-05-10 04:00:00+00:00,147.21,147.68,146.9,147.24,147.24,4737.0
2024-05-13 04:00:00+00:00,147.53,147.67,145.7,146.8,146.8,5417.0
2024-05-14 04:00:00+00:00,146.3,146.71,146.27,146.62,146.62,3246.0
2024-05-15 04:00:00+00:00,147.05,147.05,145.56,146.03,146.03,6750.0
2024-05-16 04:00:00+00:00,146.12,146.32,145.15,146.28,146.28,8173.0
2024-05-17 04:00:00+00:00,146.09,146.76,145.94,146.28,146.28,8842.0
2024-05-20 04:00:00+00:00,146.45,147.12,145.91,146.95,146.95,8739.0
2024-05-21 04:00:00+00:00,146.72,147.32,145.9,147.32,147.32,10404.0
2024-05-22 04:00:00+00:00,146.82,147.34,146.28,146.88,146.88,10687.0
2024-05-23 04:00:00+00:00,146.89,147.14,146.34,146.4,146.4,7300.0
2024-05-24 04:00:00+00:00,147.04,147.49,146.21,146.75,146.75,8115.0
2024-05-28 04:00:00+00:00,146.49,146.49,144.59,145.4,145.4,9793.0
2024-05-29 04:00:00+00:00,144.1,144.58,143.45,143.57,143.57,6349.0
2024-05-30 04:00:00+00:00,144.53,145.54,143.75,144.89,144.89,24159.0
2024-05-31 04:00:00+00:00,145.42,146.39,144.65,146.39,146.39,10552.0
2024-06-03 04:00:00+00:00,146.88,146.88,145.0,145.52,145.52,1498.0
2024-06-04 04:00:00+00:00,146.4,146.95,145.52,146.93,146.93,8997.0
2024-06-05 04:00:00+00:00,146.52,146.85,145.99,146.53,146.53,7619.0
2024-06-06 04:00:00+00:00,146.19,146.19,144.21,144.61,144.61,8080.0
2024-06-07 04:00:00+00:00,144.39,144.96,144.24,144.33,144.33,6620.0
2024-06-10 04:00:00+00:00,143.54,144.36,142.94,144.32,144.32,6165.0
2024-06-11 04:00:00+00:00,143.42,144.37,143.26,144.21,144.21,5273.0
2024-06-12 04:00:00+00:00,144.73,144.92,143.55,144.62,144.62,6380.0
2024-06-13 04:00:00+00:00,144.82,145.26,143.9,144.56,144.56,5969.0
2024-06-14 04:00:00+00:00,144.11,144.12,142.57,143.46,143.46,5399.0
2024-06-17 04:00:00+00:00,143.98,145.34,143.51,144.81,144.81,8374.0
2024-06-18 04:00:00+00:00,145.36,146.3,145.24,145.61,145.61,14277.0
2024-06-20 04:00:00+00:00,145.33,145.98,144.56,144.68,144.68,11362.0
2024-06-21 04:00:00+00:00,144.65,145.8,144.3,145.6,145.6,10019.0
2024-06-24 04:00:00+00:00,145.93,146.57,145.49,145.57,145.57,3751.0
2024-06-25 04:00:00+00:00,145.27,145.27,143.38,143.58,143.58,10537.0
2024-06-26 04:00:00+00:00,143.27,143.39,141.92,142.38,142.38,9767.0
2024-06-27 04:00:00+00:00,141.51,142.53,141.1,142.53,142.53,10584.0
2024-06-28 04:00:00+00:00,142.84,143.01,138.96,139.49,139.49,16816.0
2024-07-01 04:00:00+00:00,139.81,139.81,137.2,137.28,137.28,11108.0
2024-07-02 04:00:00+00:00,136.88,139.27,136.57,139.23,139.23,16112.0
2024-07-03 04:00:00+00:00,139.56,140.07,139.49,139.71,139.71,7712.0
2024-07-05 04:00:00+00:00,139.84,139.84,138.56,139.63,139.63,16893.0
2024-07-08 04:00:00+00:00,140.8,141.06,140.28,140.34,140.34,11922.0
2024-07-09 04:00:00+00:00,140.04,140.04,138.58,138.92,138.92,11834.0
2024-07-10 04:00:00+00:00,139.53,140.32,139.53,140.07,140.07,4904.0
2024-07-11 04:00:00+00:00,140.28,141.99,140.28,140.95,140.95,9754.0
2024-07-12 04:00:00+00:00,142.2,144.23,142.2,143.35,143.35,10789.0
2024-07-15 04:00:00+00:00,143.1,144.31,142.01,142.19,142.19,8965.0
2024-07-16 04:00:00+00:00,142.79,143.56,142.75,143.39,143.39,5677.0
2024-07-17 04:00:00+00:00,144.09,144.39,143.58,143.58,143.58,18695.0
2024-07-18 04:00:00+00:00,143.35,145.85,143.35,145.11,145.11,10798.0
2024-07-19 04:00:00+00:00,144.81,144.86,143.4,144.78,144.78,12606.0
2024-07-22 04:00:00+00:00,145.21,146.24,144.25,146.0,146.0,12991.0
2024-07-23 04:00:00+00:00,146.35,146.9,144.4,144.75,144.75,12270.0
2024-07-24 04:00:00+00:00,144.73,144.96,142.66,142.73,142.73,17356.0
2024-07-25 04:00:00+00:00,142.72,143.18,140.54,140.74,140.74,25100.0
2024-07-26 04:00:00+00:00,141.57,149.93,141.57,145.76,145.76,26761.0
2024-07-29 04:00:00+00:00,145.08,147.54,144.68,146.97,146.97,31864.0
2024-07-30 04:00:00+00:00,146.8,146.98,144.7,144.86,144.86,13118.0
2024-07-31 04:00:00+00:00,145.04,147.95,144.61,146.22,146.22,13865.0
2024-08-01 04:00:00+00:00,147.13,148.31,144.65,146.14,146.14,15978.0
2024-08-02 04:00:00+00:00,142.99,144.82,142.99,144.82,144.82,10399.0
2024-08-05 04:00:00+00:00,140.37,141.13,139.0,139.93,139.93,19738.0
2024-08-06 04:00:00+00:00,141.94,145.28,141.94,144.08,144.08,20018.0
2024-08-07 04:00:00+00:00,145.54,146.16,142.69,142.69,142.69,20040.0
2024-08-08 04:00:00+00:00,144.73,145.35,144.07,144.62,144.62,17850.0
2024-08-09 04:00:00+00:00,143.44,143.65,142.76,143.08,143.08,17649.0
2024-08-12 04:00:00+00:00,142.79,142.92,142.11,142.48,142.48,7475.0
2024-08-13 04:00:00+00:00,143.47,144.01,142.45,143.69,143.69,9897.0
2024-08-14 04:00:00+00:00,143.65,143.77,142.91,143.07,143.07,4463.0
2024-08-15 04:00:00+00:00,145.14,146.5,145.0,146.26,146.26,15361.0
2024-08-16 04:00:00+00:00,145.94,146.0,144.98,145.9,145.9,16727.0
2024-08-19 04:00:00+00:00,146.05,146.05,145.22,145.91,145.91,16124.0
2024-08-20 04:00:00+00:00,146.39,147.45,146.39,147.28,147.28,53445.0
2024-08-21 04:00:00+00:00,146.78,148.68,146.76,148.42,148.42,12587.0
2024-08-22 04:00:00+00:00,149.36,149.36,147.86,148.17,148.17,10089.0
2024-08-23 04:00:00+00:00,149.14,149.59,148.7,149.56,149.56,16040.0
2024-08-26 04:00:00+00:00,150.45,151.54,149.35,149.38,149.38,13612.0
2024-08-27 04:00:00+00:00,149.48,150.68,149.33,150.18,150.18,11715.0
2024-08-28 04:00:00+00:00,150.49,151.08,150.44,150.64,150.64,18390.0
2024-08-29 04:00:00+00:00,150.63,151.96,150.63,151.38,151.38,23344.0
2024-08-30 04:00:00+00:00,151.48,152.48,151.06,152.48,152.48,5801.0
2024-09-03 04:00:00+00:00,151.53,151.53,148.92,149.07,149.07,26495.0
2024-09-04 04:00:00+00:00,149.44,150.05,149.23,150.05,150.05,8075.0
2024-09-05 04:00:00+00:00,149.76,150.38,149.27,149.86,149.86,13587.0
2024-09-06 04:00:00+00:00,150.31,152.24,149.63,151.62,151.62,18104.0
2024-09-09 04:00:00+00:00,151.22,152.09,150.65,151.1,151.1,10047.0
2024-09-10 04:00:00+00:00,150.74,151.79,150.72,150.72,150.72,7847.0
2024-09-11 04:00:00+00:00,149.11,149.99,147.92,149.93,149.93,13609.0
2024-09-12 04:00:00+00:00,150.43,151.17,149.14,151.12,151.12,14741.0
2024-09-13 04:00:00+00:00,151.45,152.12,151.17,151.43,151.43,5912.0
2024-09-16 04:00:00+00:00,151.81,152.31,151.36,152.08,152.08,8720.0
2024-09-17 04:00:00+00:00,154.18,154.45,151.06,152.15,152.15,21913.0
2024-09-18 04:00:00+00:00,152.92,154.63,151.87,152.12,152.12,11369.0
2024-09-19 04:00:00+00:00,154.56,157.5,154.56,156.0,156.0,32446.0
2024-09-20 04:00:00+00:00,155.28,155.28,153.85,155.06,155.06,17544.0
2024-09-23 04:00:00+00:00,155.62,155.75,154.25,155.05,155.05,17567.0
2024-09-24 04:00:00+00:00,155.41,156.2,155.36,155.68,155.68,12628.0
2024-09-25 04:00:00+00:00,155.68,156.88,155.55,156.29,156.29,8911.0
2024-09-26 04:00:00+00:00,157.12,158.15,156.92,157.8,157.8,25095.0
2024-09-27 04:00:00+00:00,157.84,159.82,157.39,159.03,159.03,21174.0
2024-09-30 04:00:00+00:00,158.8,159.48,158.39,159.35,159.35,10721.0
2024-10-01 04:00:00+00:00,158.64,159.5,158.32,159.08,159.08,11910.0
2024-10-02 04:00:00+00:00,158.17,159.16,157.08,158.02,158.02,12061.0
2024-10-03 04:00:00+00:00,156.87,159.44,155.77,158.02,158.02,21222.0
2024-10-04 04:00:00+00:00,159.99,160.2,158.55,159.84,159.84,20641.0
2024-10-07 04:00:00+00:00,157.89,158.22,157.18,157.77,157.77,20097.0
2024-10-08 04:00:00+00:00,156.9,158.13,156.29,157.85,157.85,11105.0
2024-10-09 04:00:00+00:00,158.29,159.0,157.95,158.71,158.71,9739.0
2024-10-10 04:00:00+00:00,157.75,158.35,157.48,158.35,158.35,7746.0
2024-10-11 04:00:00+00:00,160.22,160.91,159.58,160.61,160.61,17480.0
2024-10-14 04:00:00+00:00,163.14,166.47,163.14,166.34,166.34,28515.0
2024-10-15 04:00:00+00:00,166.1,168.63,166.1,167.86,167.86,21930.0
2024-10-16 04:00:00+00:00,167.79,168.0,165.03,165.04,165.04,26876.0
2024-10-17 04:00:00+00:00,166.3,167.3,165.68,166.99,166.99,14596.0
2024-10-18 04:00:00+00:00,167.18,168.04,166.98,167.56,167.56,9131.0
2024-10-21 04:00:00+00:00,167.46,167.46,165.42,165.47,165.47,9978.0
2024-10-22 04:00:00+00:00,164.76,165.44,164.06,164.96,164.96,11680.0
2024-10-23 04:00:00+00:00,165.93,166.88,165.92,166.7,166.7,16216.0
2024-10-24 04:00:00+00:00,167.36,167.77,165.73,166.17,166.17,32405.0
2024-10-25 04:00:00+00:00,166.82,169.21,165.11,168.45,168.45,29499.0
2024-10-28 04:00:00+00:00,168.97,170.49,168.39,168.77,168.77,31086.0
2024-10-29 04:00:00+00:00,168.21,168.93,167.35,168.34,168.34,18378.0
2024-10-30 04:00:00+00:00,168.66,169.58,168.29,168.56,168.56,20671.0
2024-10-31 04:00:00+00:00,168.63,169.35,167.4,167.48,167.48,12187.0
2024-11-01 04:00:00+00:00,168.13,170.35,168.13,169.16,169.16,11362.0
2024-11-04 05:00:00+00:00,169.51,169.67,167.83,167.91,167.91,7749.0
2024-11-05 05:00:00+00:00,168.49,169.72,168.49,169.72,169.72,10995.0
2024-11-06 05:00:00+00:00,173.23,173.76,171.88,172.71,172.71,16058.0
2024-11-07 05:00:00+00:00,173.9,174.92,173.17,174.22,174.22,29274.0
2024-11-08 05:00:00+00:00,174.37,176.81,174.37,175.25,175.25,18172.0
2024-11-11 05:00:00+00:00,175.91,177.52,175.4,175.65,175.65,11669.0
2024-11-12 05:00:00+00:00,176.33,176.33,174.65,175.41,175.41,9367.0
2024-11-13 05:00:00+00:00,175.01,175.79,174.61,175.08,175.08,10455.0
2024-11-14 05:00:00+00:00,175.21,175.21,173.41,173.6,173.6,13404.0
2024-11-15 05:00:00+00:00,173.27,173.27,165.86,166.04,166.04,40327.0
2024-11-18 05:00:00+00:00,165.6,167.1,164.01,166.31,166.31,20996.0
2024-11-19 05:00:00+00:00,166.36,167.07,166.24,166.36,166.36,12409.0
2024-11-20 05:00:00+00:00,166.02,168.31,165.36,168.31,168.31,14741.0
2024-11-21 05:00:00+00:00,168.04,169.75,167.33,169.25,169.25,11436.0
2024-11-22 05:00:00+00:00,170.95,171.47,170.61,170.97,170.97,8097.0
2024-11-25 05:00:00+00:00,171.32,172.98,171.32,172.1,172.1,10130.0
2024-11-26 05:00:00+00:00,171.82,171.82,171.07,171.5,171.5,5927.0
2024-11-27 05:00:00+00:00,172.88,172.88,171.04,171.07,171.07,4992.0
2024-11-29 05:00:00+00:00,171.76,172.86,171.76,172.76,172.76,4556.0
2024-12-02 05:00:00+00:00,170.85,172.53,170.85,172.1,172.1,10546.0
2024-12-03 05:00:00+00:00,172.63,172.63,171.48,171.8,171.8,7344.0
2024-12-04 05:00:00+00:00,171.51,172.26,170.69,172.13,172.13,7784.0
2024-12-05 05:00:00+00:00,171.39,171.8,170.43,170.59,170.59,10872.0
2024-12-06 05:00:00+00:00,171.41,171.41,170.45,170.92,170.92,13141.0
2024-12-09 05:00:00+00:00,172.02,172.02,169.75,170.3,170.3,11079.0
2024-12-10 05:00:00+00:00,168.92,170.74,168.92,170.74,170.74,12739.0
2024-12-11 05:00:00+00:00,171.72,173.51,171.49,171.87,171.87,12117.0
2024-12-12 05:00:00+00:00,171.12,171.89,170.82,171.89,171.89,8506.0
2024-12-13 05:00:00+00:00,170.42,170.42,169.56,169.88,169.88,4947.0
2024-12-16 05:00:00+00:00,169.64,169.7,167.27,167.27,167.27,14495.0
2024-12-17 05:00:00+00:00,166.06,166.41,162.44,162.48,162.48,17609.0
2024-12-18 05:00:00+00:00,163.49,163.82,157.53,157.69,157.69,20487.0
2024-12-19 05:00:00+00:00,158.51,160.39,157.84,158.35,158.35,21292.0
2024-12-20 05:00:00+00:00,158.89,159.32,157.15,157.4,157.4,25172.0
2024-12-23 05:00:00+00:00,157.52,157.52,157.06,157.06,157.06,1176.0
2024-12-24 05:00:00+00:00,157.72,158.87,157.63,158.83,158.83,7470.0
2024-12-26 05:00:00+00:00,158.85,158.94,158.31,158.31,158.31,7757.0
2024-12-27 05:00:00+00:00,158.23,159.09,157.25,157.65,157.65,10855.0
2024-12-30 05:00:00+00:00,156.26,156.8,154.95,156.35,156.35,10650.0
2024-12-31 05:00:00+00:00,157.14,157.78,155.75,156.45,156.45,15403.0
2025-01-02 05:00:00+00:00,156.74,157.31,153.21,153.56,153.56,16105.0
2025-01-03 05:00:00+00:00,153.31,155.14,153.28,155.03,155.03,16430.0
2025-01-06 05:00:00+00:00,153.56,153.56,151.52,152.3,152.3,19605.0
2025-01-07 05:00:00+00:00,155.2,155.35,152.31,152.77,152.77,18128.0
2025-01-08 05:00:00+00:00,153.22,153.74,152.11,153.59,153.59,17817.0
2025-01-10 05:00:00+00:00,152.7,153.62,152.18,153.36,153.36,18283.0
2025-01-13 05:00:00+00:00,153.79,153.98,152.92,153.49,153.49,16664.0
2025-01-14 05:00:00+00:00,154.43,154.81,153.48,154.09,154.09,9017.0
2025-01-15 05:00:00+00:00,155.2,155.34,153.79,155.15,155.15,13577.0
2025-01-16 05:00:00+00:00,156.0,156.61,154.96,155.78,155.78,18353.0
2025-01-17 05:00:00+00:00,156.74,157.21,155.65,155.65,155.65,17143.0
2025-01-21 05:00:00+00:00,157.84,159.72,157.49,159.4,159.4,17052.0
2025-01-22 05:00:00+00:00,159.35,160.23,158.42,158.48,158.48,16320.0
2025-01-23 05:00:00+00:00,158.09,159.27,157.53,159.27,159.27,8557.0
2025-01-24 05:00:00+00:00,158.7,158.7,156.89,157.8,157.8,12762.0
2025-01-27 05:00:00+00:00,156.2,158.31,156.2,157.63,157.63,18227.0
2025-01-28 05:00:00+00:00,157.73,159.74,157.47,158.06,158.06,11711.0
2025-01-29 05:00:00+00:00,157.3,158.02,156.27,156.56,156.56,18925.0
2025-01-30 05:00:00+00:00,157.12,158.12,156.57,157.78,157.78,21333.0
2025-01-31 05:00:00+00:00,157.63,158.84,156.35,156.82,156.82,40095.0
2025-02-03 05:00:00+00:00,153.91,156.15,153.9,155.42,155.42,26193.0
2025-02-04 05:00:00+00:00,156.22,157.79,156.22,157.32,157.32,22518.0
2025-02-05 05:00:00+00:00,158.665,159.58,157.86,158.52,158.52,13205.0
2025-02-06 05:00:00+00:00,158.04,158.18,155.37,156.405,156.405,32589.0
2025-02-07 05:00:00+00:00,152.935,152.935,142.29,143.15,143.15,84189.0
2025-02-10 05:00:00+00:00,143.885,143.885,140.895,143.235,143.235,40274.0
2025-02-11 05:00:00+00:00,142.87,143.03,140.32,142.33,142.33,22124.0
2025-02-12 05:00:00+00:00,140.3,143.4,140.18,141.81,141.81,23724.0
2025-02-13 05:00:00+00:00,142.28,143.78,141.81,142.875,142.875,82114.0
2025-02-14 05:00:00+00:00,143.01,145.27,142.785,144.8,144.8,39820.0
2025-02-18 05:00:00+00:00,144.52,147.295,144.33,146.89,146.89,24098.0
2025-02-19 05:00:00+00:00,146.02,147.455,145.71,147.07,147.07,21297.0
2025-02-20 05:00:00+00:00,146.31,147.35,146.31,146.71,146.71,10171.0
2025-02-21 05:00:00+00:00,146.53,147.385,145.285,146.235,146.235,24107.0
2025-02-24 05:00:00+00:00,144.795,147.22,144.795,145.615,145.615,18280.0
2025-02-25 05:00:00+00:00,145.805,148.1,145.73,147.73,147.73,20251.0
2025-02-26 05:00:00+00:00,147.21,148.995,146.64,146.64,146.64,25381.0
2025-02-27 05:00:00+00:00,146.305,147.1,145.37,145.6,145.6,19248.0
2025-02-28 05:00:00+00:00,146.11,146.57,144.7,146.48,146.48,14587.0
2025-03-03 05:00:00+00:00,147.215,148.7,145.74,146.53,146.53,21177.0
2025-03-04 05:00:00+00:00,145.885,147.85,145.28,145.845,145.845,21669.0
2025-03-05 05:00:00+00:00,146.12,148.7,146.12,148.45,148.45,17131.0
2025-03-06 05:00:00+00:00,148.33,151.4,147.08,151.18,151.18,27590.0
2025-03-07 05:00:00+00:00,150.91,153.36,149.29,152.81,152.81,20214.0
2025-03-10 04:00:00+00:00,152.52,152.64,150.6,150.7,150.7,16969.0
2025-03-11 04:00:00+00:00,150.56,150.56,147.475,148.02,148.02,13270.0
2025-03-12 04:00:00+00:00,147.54,147.54,145.745,145.745,145.745,15865.0
2025-03-13 04:00:00+00:00,146.055,146.595,144.0,144.82,144.82,12346.0
2025-03-14 04:00:00+00:00,145.745,146.86,144.69,146.85,146.85,11108.0
2025-03-17 04:00:00+00:00,147.15,147.99,146.53,147.94,147.94,6435.0
2025-03-18 04:00:00+00:00,146.39,147.055,145.95,146.56,146.56,7824.0
2025-03-19 04:00:00+00:00,146.38,147.08,145.6,147.05,147.05,13712.0
2025-03-20 04:00:00+00:00,146.505,146.98,143.73,145.21,145.21,16634.0
2025-03-21 04:00:00+00:00,143.04,145.27,142.82,145.03,145.03,19627.0
2025-03-24 04:00:00+00:00,145.895,148.12,145.13,147.92,147.92,20997.0
2025-03-25 04:00:00+00:00,147.38,147.65,146.27,147.025,147.025,10462.0
2025-03-26 04:00:00+00:00,147.09,148.64,146.71,148.45,148.45,18458.0
2025-03-27 04:00:00+00:00,148.19,149.61,148.19,149.335,149.335,14936.0
2025-03-28 04:00:00+00:00,146.47,147.305,145.835,146.83,146.83,11621.0
2025-03-31 04:00:00+00:00,146.12,148.54,146.12,148.54,148.54,15200.0
2025-04-01 04:00:00+00:00,148.265,149.91,147.42,149.07,149.07,14348.0
2025-04-02 04:00:00+00:00,149.535,150.9,149.28,150.565,150.565,9043.0
2025-04-03 04:00:00+00:00,148.065,149.95,146.46,148.73,148.73,15835.0
2025-04-04 04:00:00+00:00,146.5,147.96,140.07,140.2,140.2,33518.0
